,o,h,l,c,v,sma9,sma20,sma50,sma200,lower,upper,atr
0,104.0,106.56,102.7734,104.71,449125,,,,,,,3.786600000000007
1,103.4,104.76,101.95,102.38,515351,,,,,,,3.716842857142864
2,99.73,102.205,99.315,101.17,594153,,,,,,,3.6702826530612307
3,101.62,103.76,100.81,103.64,270090,,,,,,,3.618833892128286
4,103.79,105.72,102.2,102.75,276635,,,,,,,3.6117743284048363
5,105.39,107.63,104.44,107.36,199266,,,,,,,3.702361876375919
6,105.34,105.8,102.65,103.98,236666,,,,,,,3.774336028063353
7,101.61,107.41,101.33,107.28,493180,,,,,,,3.9390263117731132
8,102.74,105.0,99.478,101.46,529389,103.86,,,,,,4.2149530037893195
9,103.6,103.99,99.385,103.91,415301,103.77,,,,,,4.242813503518653
10,101.67,101.67,97.92,99.05,639687,103.4,,,,,,4.367612538981606
11,92.48,96.4,87.5,94.4,788223,102.65,,,,,,4.8806402147686345
12,98.08,99.44,91.12,96.42,476058,101.85,,,,,,5.126308770856588
13,87.4,94.48,87.4,87.87,573698,100.19,,,,,,5.404429572938261
14,89.95,96.95,89.48,96.45,533056,98.98,,,,,,5.666970317728385
15,91.69,96.98,90.34,96.74,614591,98.18,,,,,,5.736472437890643
16,96.49,101.22,93.59,98.64,299073,97.22,,,,,,5.87172440661274
17,98.81,99.9825,89.13,92.4,709083,96.21,,,,,,6.2274940918546875
18,92.06,93.24,79.84,83.86,642938,93.98,,,,,,6.739815942436495
19,87.27,88.32,82.69,88.06,495291,92.76,98.63,,,80.32080849034536,111.6440366280869,6.660543375119603
20,89.0,93.66,86.22,90.17,524600,92.29,97.9,,,79.43304256574079,111.16309668530968,6.7162188483253455
21,90.85,97.34,90.216,96.2,355720,92.27,97.59,,,79.18782195508805,110.67433515621589,6.7486317877306785
22,94.54,95.84,92.1,93.89,435571,92.93,97.23,,,79.05147456965179,110.46638487646784,6.5594438028927735
23,94.97,100.96,94.37,100.48,387313,93.38,97.07,,,79.14768986172163,110.17758934261742,6.595912102686146
24,100.52,102.75,97.44,99.54,465866,93.69,96.91,,,79.41322036407301,109.7470073011023,6.504061238208565
25,97.71,98.675,95.44,96.32,250269,93.44,96.36,,,80.04201867757745,108.55374111470917,6.332342578336526
26,95.81,97.14,94.12,96.14,391636,93.85,95.96,,,80.55599506427703,107.5942964715865,6.095746679883916
27,94.88,97.42,93.36,94.2,284999,95.0,95.31,,,81.01215333903718,106.08419483261974,5.950336202749352
28,97.07,101.18,97.07,100.76,451661,96.41,95.28,,,81.22276918603158,105.36238245446565,6.023883616838685
29,103.55,103.55,99.22,101.12,290436,97.63,95.14,,,81.24132029988643,105.26697303161806,5.902891929921636
30,101.63,105.29,100.64,104.205,283995,98.52,95.39,,,80.94879528978336,105.99659079944753,5.813399649212948
31,105.04,108.03,104.23,107.43,353358,100.02,96.04,,,80.56704592910067,107.69484368785479,5.671371102840595
32,106.99,107.43,102.3,102.33,182696,100.23,96.34,,,80.35000151085507,108.91269755040925,5.632701738351982
33,104.56,105.3658,103.36,103.76,190351,100.7,97.13,,,80.62046838597571,109.60164400669368,5.4472087570411265
34,102.28,104.19,100.61,100.82,386772,101.2,97.35,,,80.99822924873739,110.08784936668341,5.31383670296676
35,103.03,103.03,99.68,101.85,253933,101.83,97.61,,,81.3971525647533,110.38101593036586,5.173562652754848
36,103.86,105.02,102.4,102.85,216948,102.79,97.82,,,81.42906544268973,110.78891268268868,5.03045103470093
37,101.86,107.94,101.13,106.94,774451,103.48,98.55,,,82.1010162936737,111.71334784118844,5.157561675079435
38,105.85,106.99,104.115,106.1,409805,104.03,99.66,,,85.08715213382476,112.11893687133932,4.994521555430905
39,106.99,107.035,104.12,106.54,328694,104.29,100.58,,,87.85175727713835,111.31747756782727,4.845984301471554
40,106.62,107.32,104.95,105.02,308738,104.02,101.32,,,90.01091036773767,111.22341897764016,4.669128279937871
41,105.41,105.41,103.09,104.37,263752,104.25,101.73,,,91.50888478245321,111.20661428481215,4.501333402799451
42,109.33,114.1,106.88,112.56,415411,105.23,102.67,,,92.46643323736423,112.59796659822301,4.874809588313775
43,112.6,114.66,110.99,111.18,246823,106.38,103.2,,,92.52669658714366,114.29077725252444,4.788751760577077
44,112.56,113.63,109.82,110.11,202200,107.3,103.73,,,92.55007581119135,115.50780986243423,4.718840920535858
45,108.99,110.07,106.34,107.1,432210,107.77,104.27,,,93.41011660846699,115.68373297309604,4.651066569069012
46,110.56,110.56,104.71,106.14,472341,107.68,104.77,,,94.78892985018686,115.50071994021702,4.7367046712783685
47,105.53,107.325,105.08,106.82,286955,107.76,105.4,,,96.69868296395282,114.74262248913624,4.558725766187057
48,106.78,107.63,105.4,105.53,196363,107.65,105.64,,,97.79243300445202,114.45433693307919,4.3923882114594095
49,106.77,107.05,104.76,104.88,209940,107.63,105.83,101.16,,98.48107113414618,114.34776119072903,4.242217624926594
50,105.52,106.89,105.14,105.38,212534,107.74,105.89,101.17,,98.95066294153578,114.33011930553668,4.082773508860409
51,106.98,107.985,106.56,107.67,236238,107.2,105.9,101.28,,98.98916309257538,114.32783223219505,3.977218258227523
52,106.66,107.505,106.08,106.31,225764,106.66,106.1,101.38,,99.2464697110353,114.33029851408317,3.806702668354129
53,106.43,106.43,103.85,103.85,160803,105.96,106.1,101.38,,99.29286342737427,114.30841907947432,3.7190810491859776
54,103.39,103.39,101.645,102.42,212336,105.44,106.18,101.38,,99.49274839073242,114.38099340816436,3.6109324028155503
55,101.01,102.62,99.11,102.44,224926,105.03,106.21,101.28,,99.34373236878646,114.4299425063512,3.6037229454715827
56,101.47,101.7,100.045,101.56,274689,104.45,106.15,101.23,,98.91484243859495,114.73782231484755,3.517385592223612
57,104.07,105.15,102.95,104.17,222330,104.3,106.01,101.17,,99.18756290887339,114.69912567816522,3.5225723356362115
58,103.79,105.7475,103.16,103.62,184618,104.16,105.88,101.21,,99.09969100113081,114.6842201307764,3.45578145451934
59,104.45,105.515,104.08,104.31,106886,104.04,105.77,101.22,,99.09674499713013,114.66666810490034,3.3442970649108155
60,104.44,105.71,104.44,105.13,135763,103.76,105.78,101.34,,99.07078298121783,114.63254817952415,3.2054187031314707
61,104.97,105.25,103.71,104.97,117911,103.61,105.81,101.55,,99.13248485846438,114.63448830508175,3.086460224336366
62,107.34,110.19,106.78,109.59,289223,104.25,105.66,101.82,,99.13535928258653,113.86694436768344,3.2388559225980544
63,111.07,112.65,110.35,112.57,240395,105.37,105.73,102.31,,99.24855790276709,113.33987722663836,3.2260804995553367
64,113.33,113.33,110.94,111.59,195016,106.39,105.8,102.61,,99.06538402396917,113.2598717722869,3.1663604638728127
65,111.1,111.53,109.71,111.44,132519,107.49,106.02,102.91,,98.8498799015552,113.51233651024882,3.074477573596184
66,111.28,111.88,110.6,111.43,216057,108.29,106.28,103.16,,98.63829158432678,113.75135836344315,2.9463006040535995
67,111.75,112.47,110.94,112.07,181986,109.23,106.55,103.56,,98.45303640027862,114.41318491098737,2.8451362751926284
68,112.7,114.1,112.7,113.45,155626,110.25,106.94,104.15,,98.12197056339109,115.33822606728097,2.786912255536012
69,113.5,113.5,111.015,112.21,138958,111.04,107.31,104.63,,98.12612576132138,116.05999204371865,2.765347094426297
70,113.8,114.28,112.905,113.58,175360,111.99,107.72,105.1,,97.99622873884763,116.85668046168699,2.7156794448244193
71,112.82,114.0,112.29,113.54,194349,112.43,108.01,105.45,,97.91082073466298,117.5001593822545,2.643845198765532
72,112.78,113.45,111.91,112.475,247902,112.42,108.32,105.82,,97.93434526833676,118.00911065833576,2.5714276845679946
73,113.0,113.0,110.82,111.67,310216,112.43,108.71,106.04,,98.28216906116576,118.4007549199082,2.5434685642417096
74,110.0,110.61,104.21,104.32,276051,111.64,108.81,106.14,,98.68631446170993,118.29790406061116,2.8946493810815883
75,106.69,107.53,104.74,106.02,58088,111.04,108.99,106.33,,99.77949050166404,117.92455468587441,2.917174425290047
76,103.44,106.54,103.065,105.41,195172,110.3,109.18,106.52,,100.45000849413117,117.33242011126255,2.9570191091979012
77,108.3,109.09,106.86,107.39,188571,109.62,109.34,106.78,,101.00625181363131,117.12744595444356,3.0086606013980517
78,108.19,108.65,106.37,106.94,152749,109.04,109.51,106.9,,101.50791773569463,116.95108637434866,2.956613415583905
79,106.28,107.97,105.97,107.1,136329,108.32,109.64,107.02,,101.80354729307325,116.737451361359,2.8882838858993405
80,107.21,107.99,106.1,107.63,205760,107.66,109.77,107.09,,102.0599523755563,116.52011405305208,2.816977894049388
81,106.94,107.67,105.5,107.55,177875,107.11,109.9,107.09,,102.38650572555781,116.21705386845302,2.7707651873315746
82,108.46,108.46,106.92,107.49,177306,106.65,109.79,107.2,,102.40212726700547,116.24518286928618,2.682853388236462
83,106.58,107.52,105.85,105.93,393235,106.83,109.46,107.24,,102.10480005641632,116.13349973467098,2.610506717648143
84,105.41,107.63,103.78,107.58,230861,107.0,109.26,107.38,,101.5298707107494,115.86080483010235,2.699041952101847
85,107.12,108.69,106.17,107.7,316312,107.26,109.07,107.49,,101.34333947129734,115.74199427359856,2.686253241237429
86,108.24,110.19,107.89,109.28,141427,107.47,108.97,107.62,,101.32810606577964,115.60372153532155,2.6722351525776125
87,109.13,112.28,109.13,111.84,302554,108.01,108.96,107.72,,101.37326460940172,115.57791705523007,2.7063612131077837
88,111.91,112.665,110.95,112.52,196549,108.61,108.91,107.85,,101.53237965741664,115.32126965449744,2.635549697885799
89,113.44,115.01,113.44,114.97,213218,109.43,109.05,108.02,,101.28386981667947,115.64189140983109,2.625153290893957
90,115.99,116.66,114.18,115.25,212956,110.28,109.13,108.22,,101.11226249952014,116.22143938561858,2.6147851986872452
91,114.64,116.0,114.18,115.09,280935,111.13,109.21,108.44,,100.89428234793486,116.64364782932704,2.5580148273524417
92,114.79,115.75,112.59,112.93,160006,111.91,109.23,108.44,,100.84034950687088,117.072556659624,2.6010137682558385
93,113.16,114.14,111.405,113.83,272403,112.6,109.34,108.5,,100.8149238134348,117.23978787987285,2.6105842133804216
94,114.17,115.17,112.395,115.06,190934,113.42,109.88,108.59,,101.19222252273337,117.77973304482083,2.6223281981389635
95,114.96,116.265,113.27,113.43,182870,113.88,110.25,108.72,,101.51507893312227,118.44878612282702,2.6489476125576092
96,113.76,116.5,113.69,116.34,156651,114.38,110.79,108.93,,102.26098920350051,118.96242640346777,2.6790227830892084
97,117.44,118.29,116.54,117.98,269467,114.99,111.32,109.15,,102.15673619038584,119.87466027958703,2.6269497271542654
98,118.04,118.49,116.8,117.21,215895,115.24,111.84,109.38,,102.25740587600409,120.66982805276378,2.560024746643246
99,118.0,119.71,117.34,119.46,198097,115.7,112.45,109.67,,102.52539921761655,121.52399179023315,2.555737264740157
100,119.4,119.75,118.27,119.27,159832,116.17,113.04,109.95,,102.84101778786558,122.20783364833277,2.478898888687289
101,119.58,119.87,117.67,118.2,341875,116.75,113.57,110.16,,103.51884347691853,122.70127773552886,2.4589775394953404
102,118.25,118.98,117.41,118.475,347333,117.27,114.12,110.41,,104.10006178729549,122.95567239500988,2.395479143817102
103,118.39,119.23,118.09,118.39,249656,117.64,114.74,110.7,,105.01389198245828,122.93209630994568,2.305802062115881
104,119.34,119.785,118.38,118.84,205608,118.24,115.3,111.02,,106.75430320712837,122.7471300691777,2.241459057679032
105,118.83,120.45,118.5,119.85,254417,118.63,115.91,111.37,,108.1130575966953,122.57798858187564,2.2206405535591016
106,119.81,119.81,117.78,118.02,302215,118.64,116.35,111.7,,109.29069078128245,122.31545232938632,2.209880514019165
107,118.72,119.41,117.33,118.75,421108,118.81,116.69,111.99,,110.35414990368282,122.18301929569444,2.2006033344463676
108,117.75,118.91,116.7,117.85,635354,118.63,116.96,112.28,,111.09064025280901,121.8922102895183,2.2012745248430554
109,115.0,117.9,111.22,115.1,1068435,118.16,116.97,112.49,,110.65221844931098,121.79632766733477,2.5211834873542665
110,116.85,119.68,114.85,118.79,488332,118.23,117.14,112.77,,110.71913292373179,121.95428581844466,2.686098952543248
111,118.95,120.18,118.22,118.7,402336,118.25,117.32,113.04,,110.85717463506714,122.11153375920348,2.6342347416473024
112,119.56,120.67,118.22,118.36,278050,118.25,117.6,113.22,,111.29511803918004,122.26492413009801,2.621075117243924
113,118.82,120.11,116.68,117.66,443422,118.12,117.79,113.32,,112.10845928632695,121.91885585066537,2.678855466012215
114,117.07,119.37,116.78,119.32,343779,118.06,118.0,113.47,,112.77171228455211,121.53356302411306,2.672508647011343
115,119.58,119.58,116.9,117.0,331800,117.95,118.18,113.58,,113.29887212613207,121.26811205994267,2.6730437436533894
116,118.02,119.35,116.53,116.66,270787,117.72,118.19,113.69,,113.76172387416592,120.87830441368932,2.6835406191067186
117,116.92,118.57,116.75,118.1,305677,117.74,118.2,113.81,,113.77727309865236,120.84729972177396,2.628287717741953
118,119.14,119.92,118.01,118.24,259074,118.09,118.25,113.91,,113.81011030656452,120.84561454032081,2.576981452188956
119,117.91,118.64,116.77,117.87,283443,117.99,118.17,114.02,,113.78116098710284,120.85379733531651,2.5264827770326024
120,118.7,119.37,117.32,117.75,225856,117.88,118.1,114.1,,113.78080923555207,120.83115075325165,2.492448292958846
121,117.06,118.125,116.6,117.47,247441,117.79,118.06,114.18,,113.73824273015622,120.86143536305852,2.423344843461786
122,117.12,118.35,116.4,117.8,280336,117.8,118.03,114.29,,113.68630400859327,120.89407232567982,2.389534497500229
123,118.92,119.76,118.53,119.18,367122,117.79,118.07,114.44,,113.66829024849152,120.92869806011721,2.358853461964499
124,119.54,119.54,117.93,118.13,179243,117.91,118.03,114.71,,113.68216137321808,120.90727378773168,2.3053639289670347
125,117.99,119.0,117.56,118.59,172110,118.13,117.97,114.97,,113.7068147914617,120.75731592455642,2.2435522197551037
126,118.63,120.62,118.5,120.05,373349,118.34,118.07,115.26,,113.6823249934932,120.8984519355887,2.234727061201168
127,119.7,119.7,118.0,118.2,531681,118.34,118.04,115.47,,113.68265361932136,120.92063501344593,2.2215322711153704
128,118.58,119.16,117.78,118.3,229582,118.39,118.06,115.7,,113.71640638298325,120.92162334792809,2.161422823178558
129,117.94,119.64,117.94,119.48,210542,118.58,118.28,115.95,,115.47618760356188,120.84471293204994,2.1284640500943754
130,119.75,122.44,118.97,122.15,234496,119.1,118.45,116.24,,115.93928715624169,121.520505931603,2.2242880465162056
131,122.28,122.28,118.5,119.17,400403,119.25,118.47,116.47,,115.92249475645278,121.95936394348793,2.3354103289079053
132,120.04,120.3,116.49,118.71,347666,119.2,118.49,116.7,,115.80570269539454,121.91353397209492,2.440738162557341
133,118.13,118.13,116.04,116.07,270480,118.97,118.41,116.9,,115.6880190626719,121.91033558717577,2.4571140080889586
134,116.64,118.63,116.64,117.89,226192,118.89,118.34,117.11,,115.66908805949181,121.91157960566316,2.464463007511176
135,118.31,118.91,116.71,117.19,437229,118.57,118.35,117.3,,115.64588060696512,121.89558384112316,2.4455727926889494
136,117.88,118.71,117.13,118.38,172654,118.59,118.44,117.48,,115.71845198590032,121.89043515439336,2.3837461646397387
137,119.37,120.06,118.47,119.0,205317,118.67,118.48,117.62,,115.77537166418895,121.93707260299026,2.3334785814511867
138,119.44,119.8,118.12,118.3,99643,118.54,118.48,117.74,,115.77359316248902,121.92788971278746,2.286801539918959
139,119.4813,119.4813,117.57,117.77,128827,118.05,118.48,117.79,,115.8496476201795,121.93086780117207,2.2599800013533202
140,116.5,117.24,115.08,115.95,242250,117.7,118.39,117.81,,115.40957336215045,122.0522153886266,2.290695715542369
141,116.58,116.75,114.23,115.07,258112,117.29,118.27,117.81,,114.85467113829326,122.20283557919296,2.307074593003628
142,113.6,114.04,111.82,113.45,124041,117.0,118.05,117.82,,113.6201946594935,122.86773249941658,2.3744264077890835
143,113.56,114.67,113.56,114.34,159938,116.61,117.81,117.83,,113.1021615473393,123.12449425806379,2.291967378661292
144,113.68,114.53,111.71,112.12,124889,116.04,117.51,117.77,,112.184884395715,123.30567957676556,2.3296839944712007
145,111.9,113.17,111.16,112.27,184050,115.36,117.19,117.74,,111.27915759905378,123.63253050612005,2.3068494234375443
146,111.46,112.58,111.46,112.08,213876,114.59,116.79,117.66,,110.6174582714867,123.72946376383314,2.2220744646205772
147,113.17,114.22,112.04,112.48,185780,113.95,116.51,117.55,,110.15479079934462,123.63699458754576,2.219069145719107
148,112.06,113.35,111.745,112.6,398337,113.37,116.22,117.46,,109.70091256032323,123.61741913699781,2.1752070638820276
149,113.27,113.935,112.5,113.14,225601,113.06,115.91,117.33,,109.44678347148084,123.43187988860517,2.1223351307475973
150,113.45,114.97,113.14,113.71,231711,112.91,115.48,117.22,,109.4281176809825,122.60823685494972,2.1014540499799117
151,112.31,114.175,112.31,112.91,196092,112.85,115.17,117.11,,109.33387810428474,121.69977400484035,2.084564474981346
152,113.36,114.93,113.21,114.6,192596,112.88,114.97,117.04,,109.243491611066,121.13228827974409,2.0799527267683935
153,115.01,115.9,113.92,114.51,264793,113.14,114.89,116.96,,109.20965203735172,120.93047409232383,2.0728132462849373
154,115.09,116.17,114.5,114.98,142327,113.45,114.74,116.88,,109.24182030677731,120.65168596519129,2.044040871550299
155,115.8,116.79,115.52,116.52,222482,113.94,114.71,116.81,,109.29511206064556,120.35253393715944,2.0273236664395635
156,118.12,118.39,116.185,116.85,233329,114.42,114.63,116.79,,109.3654101267084,120.29538281790803,2.0400148331224517
157,117.05,118.825,116.7,118.06,206674,115.03,114.59,116.78,,109.59244361095284,120.01548736587726,2.0460852021851337
158,117.7,118.91,117.25,117.67,236605,115.53,114.55,116.77,,109.72048068451555,119.80823694083648,2.0185076877433383
159,117.5,118.03,116.04,116.45,133934,115.84,114.49,116.8,,109.89470858916867,119.49804219576531,2.0164714243330994
160,114.72,116.59,114.22,116.34,198125,116.22,114.51,116.75,,109.8979740619379,119.4180316856132,2.041723465452164
161,116.71,117.23,116.19,116.27,95791,116.41,114.57,116.7,,109.83493846284615,119.47922142885135,1.9701717893484385
162,116.64,116.64,114.58,115.19,129430,116.48,114.65,116.64,,110.06705785394783,119.56765695802042,1.9765880901092645
163,116.05,117.56,115.22,117.0,295091,116.71,114.79,116.63,,110.10907871703019,119.76566889740113,2.004688940815746
164,117.27,118.4,117.27,117.75,160339,116.84,115.07,116.6,,110.27647239049327,120.06647969475196,1.9614968736146217
165,117.89,118.475,116.745,118.31,203380,117.0,115.37,116.62,,110.68941742485892,120.23395477481164,1.944961382642148
166,118.75,118.97,117.48,118.35,134930,117.04,115.68,116.66,,111.06281935185557,120.3103730486618,1.9124641410248513
167,117.35,117.49,115.93,117.39,169533,117.01,115.93,116.64,,111.46945691191705,120.31165934690193,1.948716702380218
168,117.17,117.19,115.61,115.65,187119,116.92,116.08,116.59,,112.01129595370526,120.11212258836527,1.9366655093530598
169,114.11,114.61,112.25,112.34,255596,116.47,116.04,116.48,,111.95255389899114,120.01986047834839,2.0411894015421272
170,112.3,113.1,110.3445,112.9,366544,116.1,116.0,116.38,,111.24784573435873,120.28818674037157,2.0922115871462608
171,116.25,116.76,113.54,114.14,510820,115.98,116.06,116.32,,111.45981842062885,120.16299497338406,2.2184821880643852
172,115.17,118.29,114.67,118.19,360554,116.11,116.24,116.32,,111.63731100119765,120.21011106217338,2.3564477460597866
173,118.5,121.46,118.329,119.57,378381,116.32,116.5,116.33,,111.65404985618555,120.96770059007265,2.421701478484087
174,120.0,120.02,118.1,119.05,241867,116.4,116.7,116.35,,111.68030139418774,121.27604343966759,2.385865658592367
175,120.61,123.1,120.43,122.81,297596,116.89,117.01,116.43,,111.37417329329215,122.29922970736871,2.5047323972643407
176,123.59,124.61,122.47,123.6,332389,117.58,117.35,116.5,,110.79756587755435,123.53028039660892,2.478680083174031
177,127.62,128.86,122.11,123.18,556380,118.42,117.61,116.6,,110.4463779949366,125.85205022620052,2.7837743629473155
178,123.39,128.8,122.9466,127.63,511397,120.12,118.11,116.79,,110.06445407557861,127.64487568295345,3.0030333370225075
179,127.75,127.75,124.365,125.2,320980,121.49,118.54,116.9,,109.6693509060486,128.91351938508313,3.0303166700923287
180,124.24,125.21,122.59,124.18,139680,122.6,118.93,116.95,,109.842849471558,129.51981476561224,3.0010083365143045
181,124.1,126.0,124.1,124.73,115844,123.33,119.36,117.06,,109.7389506290425,130.18782086418074,2.9223648839061402
182,126.28,127.0,125.57,126.74,321922,124.12,119.94,117.22,,109.78396521120874,130.90892167884223,2.8757673921985587
183,126.26,128.1,125.7,127.45,270075,125.06,120.46,117.44,,109.88925810709532,131.7466495396197,2.841784007041518
184,127.43,127.86,125.97,126.38,253527,125.45,120.89,117.61,,109.86002938379079,132.4518500348771,2.7737994351099813
185,126.7,127.615,126.0,127.22,350079,125.86,121.34,117.82,,109.98800915144473,133.02692249151173,2.6910280468878396
186,127.51,128.36,127.19,127.79,305291,126.37,121.81,118.0,,110.03730605408158,133.64579306387247,2.582383186395852
187,128.06,129.12,126.4024,126.87,217443,126.28,122.28,118.16,,110.4565368264525,134.20519433799709,2.59204153022472
188,128.16,128.47,126.875,127.88,409401,126.58,122.89,118.35,,111.01379046891074,134.50785093016782,2.521181420922954
189,128.48,128.48,125.77,126.36,204976,126.82,123.59,118.52,,112.48726632555498,134.29041884263003,2.5346684622856
190,126.55,127.3,126.08,126.91,78170,127.07,124.29,118.74,,114.89980572753727,133.19244242695012,2.440763572122343
191,126.79,126.93,125.685,126.32,122607,127.02,124.9,118.97,,116.76320775331908,132.4394362163206,2.3553518883993187
192,127.15,128.58,126.42,127.81,110298,127.06,125.38,119.26,,118.68770254649512,131.8189884693019,2.3485410392279404
193,127.36,128.05,125.72,126.26,98417,127.05,125.72,119.49,,119.76157297494214,131.54885333091948,2.3472166792830884
194,126.07,127.11,125.15,125.87,76735,126.9,126.06,119.77,,121.19526242312637,130.49235303972378,2.319558345048582
195,125.48,127.8,125.48,127.73,121048,126.89,126.31,120.08,,122.09638288155578,129.9994307263922,2.3195898918308253
196,127.99,128.99,127.64,128.55,82506,127.08,126.55,120.41,,122.42896939160225,129.8387295447283,2.250333470985767
197,128.29,130.9,127.9381,129.09,132518,127.21,126.85,120.74,,122.93991524386182,130.33051692279213,2.301159651629641
198,129.13,130.18,128.66,129.53,112044,127.56,126.94,121.08,,123.23400130994376,130.577922140218,2.2453625336560963
199,129.47,131.09,129.02,130.47,194405,127.96,127.21,121.43,112.4,123.2557262439262,131.0880007121622,2.232836638394946
200,129.59,131.1,129.59,130.46,133337,128.42,127.52,121.76,112.53,123.7510725473071,131.31854956342247,2.1812054499381635
201,131.05,131.99,128.2,128.41,145900,128.49,127.71,122.07,112.66,124.11505630949243,131.78621098127996,2.2961193463711536
202,128.56,130.65,128.31,130.34,119406,128.94,127.88,122.38,112.8,124.22627547180853,131.96427692135373,2.2992536787732143
203,130.99,131.7399,130.2,131.11,214561,129.52,128.07,122.72,112.94,124.13328434420616,132.36475582629245,2.2450141302894147
204,131.29,133.69,131.0,133.13,244429,130.12,128.41,123.08,113.09,123.97154121250395,133.1849861019783,2.2767988352687425
205,134.0,134.67,133.64,134.55,333405,130.79,128.77,123.44,113.23,123.4121740271813,134.10764055785472,2.2241703470352605
206,132.78,135.0,131.5,134.84,142041,131.43,129.12,123.8,113.38,123.32661366772324,134.9711189595365,2.315301036532742
207,134.65,136.22,134.01,134.73,183236,132.0,129.52,124.13,113.52,123.0454898075546,136.01315140625013,2.307779533923261
208,134.52,135.75,134.45,134.52,146110,132.45,129.85,124.47,113.68,122.81824190683928,136.77100902699667,2.235795281500172
209,135.0,136.37,134.65,135.7,72391,133.04,130.32,124.86,113.84,122.87452538099406,137.54807936633696,2.2082384756787308
210,136.19,137.14,135.055,135.67,74962,133.84,130.75,125.24,114.03,122.97955688836267,138.2863047560938,2.199435727415963
211,136.27,136.75,134.8387,135.24,61926,134.39,131.2,125.62,114.23,123.31720721601124,138.74490840833116,2.1788546040291092
212,135.91,137.36,135.456,136.38,70210,134.97,131.63,126.05,114.43,123.5915596275974,139.34048245182152,2.174650703741316
213,136.77,137.32,135.61,136.97,106212,135.4,132.16,126.44,114.68,124.11845768400933,139.75313390435682,2.141461367759792
214,135.92,137.97,133.68,134.05,281139,135.34,132.57,126.77,114.86,125.03547940439573,140.00762255190625,2.2949284129198064
215,134.13,135.29,133.54,133.79,157556,135.23,132.88,127.08,115.05,126.03179160134881,139.79162306832333,2.256004954854106
216,134.22,137.97,134.22,137.72,224162,135.56,133.33,127.47,115.24,126.62487711538654,139.98899177106603,2.3934331723645275
217,137.52,140.0,136.505,139.7,138122,136.14,133.87,127.91,115.48,127.10904062229767,140.7028864877101,2.4721165171956327
218,139.57,140.62,137.755,139.05,100596,136.51,134.34,128.38,115.76,127.43524907803877,141.31023341110054,2.500179623110231
219,139.5,139.87,138.38,138.71,82840,136.85,134.75,128.91,116.01,127.76331247788188,141.69423978340848,2.4280239357452156
220,138.81,139.23,137.09,138.07,314837,137.16,135.13,129.41,116.25,128.24248300358022,141.8261668995033,2.4074507974776993
221,137.95,139.58,136.14,138.54,380068,137.4,135.64,129.9,116.46,129.24223678071849,142.00474727427877,2.4812043119435803
222,138.5,140.71,137.52,139.28,156386,137.66,136.09,130.32,116.69,130.36579751572063,141.99545332927667,2.5318325753761814
223,139.04,141.33,138.37,138.83,128710,138.19,136.47,130.71,116.88,131.04943950195775,142.09793914727402,2.5624159628493124
224,139.58,140.62,137.25,137.25,178198,138.57,136.68,131.07,117.07,131.76538423194833,142.22274771172036,2.620100536931505
225,137.73,140.75,137.49,140.62,193695,138.89,136.98,131.43,117.29,131.96098910063387,142.3945450612115,2.6829504985792547
226,140.27,141.125,138.01,138.01,176250,138.71,137.14,131.72,117.5,132.7103504655919,142.57853824482953,2.7138111772521656
227,137.86,138.38,137.11,138.19,182594,138.61,137.31,132.02,117.72,132.96984057913363,142.52884679984265,2.6106818074484384
228,138.16,139.92,137.85,139.57,156963,138.71,137.57,132.26,117.91,133.16034698214457,142.50617932554397,2.572061678344978
229,139.43,140.0,137.08,138.8,99822,138.79,137.72,132.53,118.1,133.36731507353798,142.50848559011263,2.5969144156060504
230,137.53,137.53,133.15,133.25,140782,138.2,137.6,132.71,118.25,132.98620301511787,142.48508374322225,2.8149919573484756
231,134.08,135.8,133.6064,135.03,121293,137.73,137.59,132.91,118.38,132.76653124814743,142.6008939366867,2.796063960395014
232,134.43,135.36,131.82,132.95,183439,137.07,137.42,133.04,118.54,132.06641229869555,142.8047620122197,2.8492022489382287
233,134.13,134.39,131.805,134.06,153040,136.72,137.27,133.17,118.69,131.4424302377792,143.1194589779296,2.8303306597283537
234,135.05,138.12,134.74,136.93,148301,136.31,137.42,133.38,118.87,131.5827845149151,143.12121579669576,2.9181641840334716
235,136.16,137.3,135.385,136.55,103517,136.15,137.56,133.57,119.04,131.81490283486286,142.95876739085486,2.8465095994596536
236,136.12,138.4,135.0,137.9,208557,136.12,137.56,133.77,119.22,131.91122987560402,142.96324306106172,2.886044628069679
237,139.46,140.73,138.715,140.56,129043,136.23,137.61,134.04,119.39,131.86355140332523,143.05283552946236,2.8820414403504153
238,141.25,142.0,140.53,141.99,130728,136.58,137.75,134.33,119.57,131.63381362576183,143.28216043193746,2.781181337468243
239,141.96,142.89,141.22,142.15,143136,137.57,137.93,134.64,119.74,131.36571348349227,143.75879106094732,2.701811241934796
240,143.0,144.105,142.505,143.14,95024,138.47,138.18,134.97,119.93,130.97489720600637,144.50226669436475,2.648467581796595
241,143.5,144.32,142.06,142.97,121109,139.58,138.4,135.3,120.13,130.8178207290366,145.18937950843772,2.6207198973825516
242,142.38,144.76,142.38,144.5,83893,140.74,138.66,135.63,120.29,130.6226084944825,145.83083905590954,2.6035256189980833
243,144.61,144.72,142.9,143.67,140786,141.49,138.9,135.98,120.45,130.40456633848342,146.35603279536625,2.5475595033553624
244,143.75,144.175,142.445,143.11,164136,142.22,139.2,136.33,120.61,130.3361577970808,146.79556154461363,2.489162395972838
245,142.62,143.18,141.3,141.3,153615,142.6,139.23,136.6,120.79,130.36593595257554,147.04574527748417,2.445650796260492
246,138.57,138.57,131.61,132.25,422755,141.68,138.94,136.67,120.92,129.5306655989057,146.95401337908828,2.963104310813314
247,131.25,131.37,127.5,129.25,297300,140.26,138.5,136.68,121.03,127.86376463493474,147.65853921132418,3.090739717183792
248,127.82,128.72,126.78,128.33,372420,138.72,137.93,136.65,121.14,126.2256110698979,148.56231179697212,3.0464011659563783
249,128.26,129.04,127.8,128.76,174301,137.13,137.43,136.62,121.26,125.04358134983434,149.08316536516483,2.9173725112452082
250,128.77,130.91,128.77,130.25,337684,135.71,137.28,136.61,121.39,124.40994082667487,149.32928756014203,2.8625601890134083
251,131.06,131.57,129.555,130.25,318159,134.13,137.04,136.65,121.5,123.89641313955089,149.491924456803,2.8020201755124496
252,130.78,132.0,129.875,130.62,251943,132.68,136.93,136.66,121.62,123.6328409783521,149.60115555862507,2.753661591547275
253,130.44,130.6646,129.47,130.35,289663,131.26,136.74,136.64,121.75,123.31526474678047,149.7791386810919,2.642300049293899
254,130.37,132.18,129.5037,131.125,162486,130.13,136.45,136.6,121.9,122.76136998633788,149.75006852422376,2.6447286172014777
255,130.89,131.9,130.125,130.4,451773,129.93,136.14,136.52,122.04,122.28945314562873,149.74301425100336,2.5826051445442295
256,131.14,134.14,130.41,134.09,151814,130.46,135.95,136.5,122.2,121.89513111732704,149.5971876395239,2.6652762056482118
257,134.83,138.48,134.1,137.72,197644,131.51,135.81,136.56,122.37,121.79711258125457,149.3871438542037,2.7884707623876244
258,138.68,140.67,137.68,137.69,207520,132.5,135.6,136.63,122.54,121.87468667975989,149.2212823940583,2.8028657079313644
259,138.21,140.12,137.935,139.31,124384,133.51,135.45,136.7,122.71,122.00433682176472,148.86007389282187,2.7762324430791243
260,139.19,140.415,138.74,139.4,143067,134.52,135.27,136.77,122.88,122.24359398497651,148.31174706916337,2.6975729828591857
261,140.0,141.24,139.2648,140.95,155792,135.67,135.17,136.89,123.06,122.44197981385926,147.80592292337116,2.6459749126549585
262,141.78,143.03,141.015,142.12,327875,136.98,135.05,137.0,123.23,122.57155170485731,147.47656699046715,2.6055481331796053
263,141.71,142.1,139.3316,140.6,224436,138.03,134.89,137.07,123.37,122.89545625109972,146.98662572561295,2.6186089808096336
264,139.91,141.74,139.376,141.19,136735,139.23,134.8,137.22,123.51,123.1911153986437,146.53623249890683,2.6004226250375173
265,141.34,142.47,140.94,141.52,143396,140.06,134.81,137.37,123.66,123.22926535991327,146.4037180140109,2.5239638661062664
266,142.06,142.33,139.04,139.31,270268,140.23,135.16,137.4,123.8,123.35218746561208,146.91513088120533,2.5786807328129635
267,138.97,141.86,138.26,141.59,206875,140.67,135.78,137.44,123.95,124.1630947549865,147.4599687316029,2.651632109040611
268,140.53,142.56,140.16,140.84,242431,140.84,136.4,137.48,124.09,125.18580447609361,147.73889092319828,2.633658386966282
269,141.59,144.33,141.16,141.88,263347,141.11,137.06,137.54,124.24,126.11968249526853,148.13038035110583,2.69482564504012
270,141.4,143.23,140.45,142.55,202723,141.29,137.68,137.63,124.38,127.07327911434925,148.35229940346525,2.7009095275372546
271,143.0,144.82,142.19,144.81,226031,141.59,138.4,137.76,124.54,127.92718010317115,148.7202319872667,2.6958445612845936
272,144.24,145.9,143.39,144.8,216669,142.05,139.11,137.87,124.7,128.8124094976265,149.12079906355112,2.6825699497642668
273,144.33,144.41,142.6,142.96,206159,142.25,139.74,137.95,124.86,130.09321186048265,148.76830642563755,2.648100667638249
274,143.03,143.47,141.23,141.74,302254,142.28,140.27,138.04,125.04,131.71212039390417,148.24512855432772,2.6189506199498034
275,142.77,143.98,141.38,143.83,193737,142.78,140.94,138.1,125.23,133.50582442820232,147.22072504689578,2.617597004239103
276,144.95,144.95,143.34,144.51,155880,143.1,141.47,138.23,125.43,135.66971607532574,146.33153144683874,2.5456257896505945
277,144.04,145.99,143.32,145.99,148765,143.67,141.88,138.39,125.62,136.9024078412552,146.4622322538989,2.55450966181841
278,145.28,145.5,143.38,143.61,157137,143.87,142.18,138.47,125.8,137.23810707140893,146.69890973237813,2.5584732574028104
279,143.8,143.96,142.19,143.76,117661,144.0,142.4,138.57,125.99,137.6748670855631,146.57975698525325,2.5021537390168964
280,144.42,145.3,143.28,145.22,107668,144.05,142.69,138.81,126.18,137.94228837019443,146.59518108406013,2.467714186229976
