,o,h,l,c,v,sma9,sma20,sma50,sma200,lower,upper,atr
<<<<<<< HEAD
0,104.0,106.56,102.7734,104.71,449125,,,,,,,3.786600000000007
1,103.4,104.76,101.95,102.38,515351,,,,,,,3.716842857142864
2,99.73,102.205,99.315,101.17,594153,,,,,,,3.6702826530612307
3,101.62,103.76,100.81,103.64,270090,,,,,,,3.618833892128286
4,103.79,105.72,102.2,102.75,276635,,,,,,,3.6117743284048363
5,105.39,107.63,104.44,107.36,199266,,,,,,,3.702361876375919
6,105.34,105.8,102.65,103.98,236666,,,,,,,3.774336028063353
7,101.61,107.41,101.33,107.28,493180,,,,,,,3.9390263117731132
8,102.74,105.0,99.478,101.46,529389,103.86,,,,,,4.2149530037893195
9,103.6,103.99,99.385,103.91,415301,103.77,,,,,,4.242813503518653
10,101.67,101.67,97.92,99.05,639687,103.4,,,,,,4.367612538981606
11,92.48,96.4,87.5,94.4,788223,102.65,,,,,,4.8806402147686345
12,98.08,99.44,91.12,96.42,476058,101.85,,,,,,5.126308770856588
13,87.4,94.48,87.4,87.87,573698,100.19,,,,,,5.404429572938261
14,89.95,96.95,89.48,96.45,533056,98.98,,,,,,5.666970317728385
15,91.69,96.98,90.34,96.74,614591,98.18,,,,,,5.736472437890643
16,96.49,101.22,93.59,98.64,299073,97.22,,,,,,5.87172440661274
17,98.81,99.9825,89.13,92.4,709083,96.21,,,,,,6.2274940918546875
18,92.06,93.24,79.84,83.86,642938,93.98,,,,,,6.739815942436495
19,87.27,88.32,82.69,88.06,495291,92.76,98.63,,,80.32080849034536,111.6440366280869,6.660543375119603
20,89.0,93.66,86.22,90.17,524600,92.29,97.9,,,79.43304256574079,111.16309668530968,6.7162188483253455
21,90.85,97.34,90.216,96.2,355720,92.27,97.59,,,79.18782195508805,110.67433515621589,6.7486317877306785
22,94.54,95.84,92.1,93.89,435571,92.93,97.23,,,79.05147456965179,110.46638487646784,6.5594438028927735
23,94.97,100.96,94.37,100.48,387313,93.38,97.07,,,79.14768986172163,110.17758934261742,6.595912102686146
24,100.52,102.75,97.44,99.54,465866,93.69,96.91,,,79.41322036407301,109.7470073011023,6.504061238208565
25,97.71,98.675,95.44,96.32,250269,93.44,96.36,,,80.04201867757745,108.55374111470917,6.332342578336526
26,95.81,97.14,94.12,96.14,391636,93.85,95.96,,,80.55599506427703,107.5942964715865,6.095746679883916
27,94.88,97.42,93.36,94.2,284999,95.0,95.31,,,81.01215333903718,106.08419483261974,5.950336202749352
28,97.07,101.18,97.07,100.76,451661,96.41,95.28,,,81.22276918603158,105.36238245446565,6.023883616838685
29,103.55,103.55,99.22,101.12,290436,97.63,95.14,,,81.24132029988643,105.26697303161806,5.902891929921636
30,101.63,105.29,100.64,104.205,283995,98.52,95.39,,,80.94879528978336,105.99659079944753,5.813399649212948
31,105.04,108.03,104.23,107.43,353358,100.02,96.04,,,80.56704592910067,107.69484368785479,5.671371102840595
32,106.99,107.43,102.3,102.33,182696,100.23,96.34,,,80.35000151085507,108.91269755040925,5.632701738351982
33,104.56,105.3658,103.36,103.76,190351,100.7,97.13,,,80.62046838597571,109.60164400669368,5.4472087570411265
34,102.28,104.19,100.61,100.82,386772,101.2,97.35,,,80.99822924873739,110.08784936668341,5.31383670296676
35,103.03,103.03,99.68,101.85,253933,101.83,97.61,,,81.3971525647533,110.38101593036586,5.173562652754848
36,103.86,105.02,102.4,102.85,216948,102.79,97.82,,,81.42906544268973,110.78891268268868,5.03045103470093
37,101.86,107.94,101.13,106.94,774451,103.48,98.55,,,82.1010162936737,111.71334784118844,5.157561675079435
38,105.85,106.99,104.115,106.1,409805,104.03,99.66,,,85.08715213382476,112.11893687133932,4.994521555430905
39,106.99,107.035,104.12,106.54,328694,104.29,100.58,,,87.85175727713835,111.31747756782727,4.845984301471554
40,106.62,107.32,104.95,105.02,308738,104.02,101.32,,,90.01091036773767,111.22341897764016,4.669128279937871
41,105.41,105.41,103.09,104.37,263752,104.25,101.73,,,91.50888478245321,111.20661428481215,4.501333402799451
42,109.33,114.1,106.88,112.56,415411,105.23,102.67,,,92.46643323736423,112.59796659822301,4.874809588313775
43,112.6,114.66,110.99,111.18,246823,106.38,103.2,,,92.52669658714366,114.29077725252444,4.788751760577077
44,112.56,113.63,109.82,110.11,202200,107.3,103.73,,,92.55007581119135,115.50780986243423,4.718840920535858
45,108.99,110.07,106.34,107.1,432210,107.77,104.27,,,93.41011660846699,115.68373297309604,4.651066569069012
46,110.56,110.56,104.71,106.14,472341,107.68,104.77,,,94.78892985018686,115.50071994021702,4.7367046712783685
47,105.53,107.325,105.08,106.82,286955,107.76,105.4,,,96.69868296395282,114.74262248913624,4.558725766187057
48,106.78,107.63,105.4,105.53,196363,107.65,105.64,,,97.79243300445202,114.45433693307919,4.3923882114594095
49,106.77,107.05,104.76,104.88,209940,107.63,105.83,101.16,,98.48107113414618,114.34776119072903,4.242217624926594
50,105.52,106.89,105.14,105.38,212534,107.74,105.89,101.17,,98.95066294153578,114.33011930553668,4.082773508860409
51,106.98,107.985,106.56,107.67,236238,107.2,105.9,101.28,,98.98916309257538,114.32783223219505,3.977218258227523
52,106.66,107.505,106.08,106.31,225764,106.66,106.1,101.38,,99.2464697110353,114.33029851408317,3.806702668354129
53,106.43,106.43,103.85,103.85,160803,105.96,106.1,101.38,,99.29286342737427,114.30841907947432,3.7190810491859776
54,103.39,103.39,101.645,102.42,212336,105.44,106.18,101.38,,99.49274839073242,114.38099340816436,3.6109324028155503
55,101.01,102.62,99.11,102.44,224926,105.03,106.21,101.28,,99.34373236878646,114.4299425063512,3.6037229454715827
56,101.47,101.7,100.045,101.56,274689,104.45,106.15,101.23,,98.91484243859495,114.73782231484755,3.517385592223612
57,104.07,105.15,102.95,104.17,222330,104.3,106.01,101.17,,99.18756290887339,114.69912567816522,3.5225723356362115
58,103.79,105.7475,103.16,103.62,184618,104.16,105.88,101.21,,99.09969100113081,114.6842201307764,3.45578145451934
59,104.45,105.515,104.08,104.31,106886,104.04,105.77,101.22,,99.09674499713013,114.66666810490034,3.3442970649108155
60,104.44,105.71,104.44,105.13,135763,103.76,105.78,101.34,,99.07078298121783,114.63254817952415,3.2054187031314707
61,104.97,105.25,103.71,104.97,117911,103.61,105.81,101.55,,99.13248485846438,114.63448830508175,3.086460224336366
62,107.34,110.19,106.78,109.59,289223,104.25,105.66,101.82,,99.13535928258653,113.86694436768344,3.2388559225980544
63,111.07,112.65,110.35,112.57,240395,105.37,105.73,102.31,,99.24855790276709,113.33987722663836,3.2260804995553367
64,113.33,113.33,110.94,111.59,195016,106.39,105.8,102.61,,99.06538402396917,113.2598717722869,3.1663604638728127
65,111.1,111.53,109.71,111.44,132519,107.49,106.02,102.91,,98.8498799015552,113.51233651024882,3.074477573596184
66,111.28,111.88,110.6,111.43,216057,108.29,106.28,103.16,,98.63829158432678,113.75135836344315,2.9463006040535995
67,111.75,112.47,110.94,112.07,181986,109.23,106.55,103.56,,98.45303640027862,114.41318491098737,2.8451362751926284
68,112.7,114.1,112.7,113.45,155626,110.25,106.94,104.15,,98.12197056339109,115.33822606728097,2.786912255536012
69,113.5,113.5,111.015,112.21,138958,111.04,107.31,104.63,,98.12612576132138,116.05999204371865,2.765347094426297
70,113.8,114.28,112.905,113.58,175360,111.99,107.72,105.1,,97.99622873884763,116.85668046168699,2.7156794448244193
71,112.82,114.0,112.29,113.54,194349,112.43,108.01,105.45,,97.91082073466298,117.5001593822545,2.643845198765532
72,112.78,113.45,111.91,112.475,247902,112.42,108.32,105.82,,97.93434526833676,118.00911065833576,2.5714276845679946
73,113.0,113.0,110.82,111.67,310216,112.43,108.71,106.04,,98.28216906116576,118.4007549199082,2.5434685642417096
74,110.0,110.61,104.21,104.32,276051,111.64,108.81,106.14,,98.68631446170993,118.29790406061116,2.8946493810815883
75,106.69,107.53,104.74,106.02,58088,111.04,108.99,106.33,,99.77949050166404,117.92455468587441,2.917174425290047
76,103.44,106.54,103.065,105.41,195172,110.3,109.18,106.52,,100.45000849413117,117.33242011126255,2.9570191091979012
77,108.3,109.09,106.86,107.39,188571,109.62,109.34,106.78,,101.00625181363131,117.12744595444356,3.0086606013980517
78,108.19,108.65,106.37,106.94,152749,109.04,109.51,106.9,,101.50791773569463,116.95108637434866,2.956613415583905
79,106.28,107.97,105.97,107.1,136329,108.32,109.64,107.02,,101.80354729307325,116.737451361359,2.8882838858993405
80,107.21,107.99,106.1,107.63,205760,107.66,109.77,107.09,,102.0599523755563,116.52011405305208,2.816977894049388
81,106.94,107.67,105.5,107.55,177875,107.11,109.9,107.09,,102.38650572555781,116.21705386845302,2.7707651873315746
82,108.46,108.46,106.92,107.49,177306,106.65,109.79,107.2,,102.40212726700547,116.24518286928618,2.682853388236462
83,106.58,107.52,105.85,105.93,393235,106.83,109.46,107.24,,102.10480005641632,116.13349973467098,2.610506717648143
84,105.41,107.63,103.78,107.58,230861,107.0,109.26,107.38,,101.5298707107494,115.86080483010235,2.699041952101847
85,107.12,108.69,106.17,107.7,316312,107.26,109.07,107.49,,101.34333947129734,115.74199427359856,2.686253241237429
86,108.24,110.19,107.89,109.28,141427,107.47,108.97,107.62,,101.32810606577964,115.60372153532155,2.6722351525776125
87,109.13,112.28,109.13,111.84,302554,108.01,108.96,107.72,,101.37326460940172,115.57791705523007,2.7063612131077837
88,111.91,112.665,110.95,112.52,196549,108.61,108.91,107.85,,101.53237965741664,115.32126965449744,2.635549697885799
89,113.44,115.01,113.44,114.97,213218,109.43,109.05,108.02,,101.28386981667947,115.64189140983109,2.625153290893957
90,115.99,116.66,114.18,115.25,212956,110.28,109.13,108.22,,101.11226249952014,116.22143938561858,2.6147851986872452
91,114.64,116.0,114.18,115.09,280935,111.13,109.21,108.44,,100.89428234793486,116.64364782932704,2.5580148273524417
92,114.79,115.75,112.59,112.93,160006,111.91,109.23,108.44,,100.84034950687088,117.072556659624,2.6010137682558385
93,113.16,114.14,111.405,113.83,272403,112.6,109.34,108.5,,100.8149238134348,117.23978787987285,2.6105842133804216
94,114.17,115.17,112.395,115.06,190934,113.42,109.88,108.59,,101.19222252273337,117.77973304482083,2.6223281981389635
95,114.96,116.265,113.27,113.43,182870,113.88,110.25,108.72,,101.51507893312227,118.44878612282702,2.6489476125576092
96,113.76,116.5,113.69,116.34,156651,114.38,110.79,108.93,,102.26098920350051,118.96242640346777,2.6790227830892084
97,117.44,118.29,116.54,117.98,269467,114.99,111.32,109.15,,102.15673619038584,119.87466027958703,2.6269497271542654
98,118.04,118.49,116.8,117.21,215895,115.24,111.84,109.38,,102.25740587600409,120.66982805276378,2.560024746643246
99,118.0,119.71,117.34,119.46,198097,115.7,112.45,109.67,,102.52539921761655,121.52399179023315,2.555737264740157
100,119.4,119.75,118.27,119.27,159832,116.17,113.04,109.95,,102.84101778786558,122.20783364833277,2.478898888687289
101,119.58,119.87,117.67,118.2,341875,116.75,113.57,110.16,,103.51884347691853,122.70127773552886,2.4589775394953404
102,118.25,118.98,117.41,118.475,347333,117.27,114.12,110.41,,104.10006178729549,122.95567239500988,2.395479143817102
103,118.39,119.23,118.09,118.39,249656,117.64,114.74,110.7,,105.01389198245828,122.93209630994568,2.305802062115881
104,119.34,119.785,118.38,118.84,205608,118.24,115.3,111.02,,106.75430320712837,122.7471300691777,2.241459057679032
105,118.83,120.45,118.5,119.85,254417,118.63,115.91,111.37,,108.1130575966953,122.57798858187564,2.2206405535591016
106,119.81,119.81,117.78,118.02,302215,118.64,116.35,111.7,,109.29069078128245,122.31545232938632,2.209880514019165
107,118.72,119.41,117.33,118.75,421108,118.81,116.69,111.99,,110.35414990368282,122.18301929569444,2.2006033344463676
108,117.75,118.91,116.7,117.85,635354,118.63,116.96,112.28,,111.09064025280901,121.8922102895183,2.2012745248430554
109,115.0,117.9,111.22,115.1,1068435,118.16,116.97,112.49,,110.65221844931098,121.79632766733477,2.5211834873542665
110,116.85,119.68,114.85,118.79,488332,118.23,117.14,112.77,,110.71913292373179,121.95428581844466,2.686098952543248
111,118.95,120.18,118.22,118.7,402336,118.25,117.32,113.04,,110.85717463506714,122.11153375920348,2.6342347416473024
112,119.56,120.67,118.22,118.36,278050,118.25,117.6,113.22,,111.29511803918004,122.26492413009801,2.621075117243924
113,118.82,120.11,116.68,117.66,443422,118.12,117.79,113.32,,112.10845928632695,121.91885585066537,2.678855466012215
114,117.07,119.37,116.78,119.32,343779,118.06,118.0,113.47,,112.77171228455211,121.53356302411306,2.672508647011343
115,119.58,119.58,116.9,117.0,331800,117.95,118.18,113.58,,113.29887212613207,121.26811205994267,2.6730437436533894
116,118.02,119.35,116.53,116.66,270787,117.72,118.19,113.69,,113.76172387416592,120.87830441368932,2.6835406191067186
117,116.92,118.57,116.75,118.1,305677,117.74,118.2,113.81,,113.77727309865236,120.84729972177396,2.628287717741953
118,119.14,119.92,118.01,118.24,259074,118.09,118.25,113.91,,113.81011030656452,120.84561454032081,2.576981452188956
119,117.91,118.64,116.77,117.87,283443,117.99,118.17,114.02,,113.78116098710284,120.85379733531651,2.5264827770326024
120,118.7,119.37,117.32,117.75,225856,117.88,118.1,114.1,,113.78080923555207,120.83115075325165,2.492448292958846
121,117.06,118.125,116.6,117.47,247441,117.79,118.06,114.18,,113.73824273015622,120.86143536305852,2.423344843461786
122,117.12,118.35,116.4,117.8,280336,117.8,118.03,114.29,,113.68630400859327,120.89407232567982,2.389534497500229
123,118.92,119.76,118.53,119.18,367122,117.79,118.07,114.44,,113.66829024849152,120.92869806011721,2.358853461964499
124,119.54,119.54,117.93,118.13,179243,117.91,118.03,114.71,,113.68216137321808,120.90727378773168,2.3053639289670347
125,117.99,119.0,117.56,118.59,172110,118.13,117.97,114.97,,113.7068147914617,120.75731592455642,2.2435522197551037
126,118.63,120.62,118.5,120.05,373349,118.34,118.07,115.26,,113.6823249934932,120.8984519355887,2.234727061201168
127,119.7,119.7,118.0,118.2,531681,118.34,118.04,115.47,,113.68265361932136,120.92063501344593,2.2215322711153704
128,118.58,119.16,117.78,118.3,229582,118.39,118.06,115.7,,113.71640638298325,120.92162334792809,2.161422823178558
129,117.94,119.64,117.94,119.48,210542,118.58,118.28,115.95,,115.47618760356188,120.84471293204994,2.1284640500943754
130,119.75,122.44,118.97,122.15,234496,119.1,118.45,116.24,,115.93928715624169,121.520505931603,2.2242880465162056
131,122.28,122.28,118.5,119.17,400403,119.25,118.47,116.47,,115.92249475645278,121.95936394348793,2.3354103289079053
132,120.04,120.3,116.49,118.71,347666,119.2,118.49,116.7,,115.80570269539454,121.91353397209492,2.440738162557341
133,118.13,118.13,116.04,116.07,270480,118.97,118.41,116.9,,115.6880190626719,121.91033558717577,2.4571140080889586
134,116.64,118.63,116.64,117.89,226192,118.89,118.34,117.11,,115.66908805949181,121.91157960566316,2.464463007511176
135,118.31,118.91,116.71,117.19,437229,118.57,118.35,117.3,,115.64588060696512,121.89558384112316,2.4455727926889494
136,117.88,118.71,117.13,118.38,172654,118.59,118.44,117.48,,115.71845198590032,121.89043515439336,2.3837461646397387
137,119.37,120.06,118.47,119.0,205317,118.67,118.48,117.62,,115.77537166418895,121.93707260299026,2.3334785814511867
138,119.44,119.8,118.12,118.3,99643,118.54,118.48,117.74,,115.77359316248902,121.92788971278746,2.286801539918959
139,119.4813,119.4813,117.57,117.77,128827,118.05,118.48,117.79,,115.8496476201795,121.93086780117207,2.2599800013533202
140,116.5,117.24,115.08,115.95,242250,117.7,118.39,117.81,,115.40957336215045,122.0522153886266,2.290695715542369
141,116.58,116.75,114.23,115.07,258112,117.29,118.27,117.81,,114.85467113829326,122.20283557919296,2.307074593003628
142,113.6,114.04,111.82,113.45,124041,117.0,118.05,117.82,,113.6201946594935,122.86773249941658,2.3744264077890835
143,113.56,114.67,113.56,114.34,159938,116.61,117.81,117.83,,113.1021615473393,123.12449425806379,2.291967378661292
144,113.68,114.53,111.71,112.12,124889,116.04,117.51,117.77,,112.184884395715,123.30567957676556,2.3296839944712007
145,111.9,113.17,111.16,112.27,184050,115.36,117.19,117.74,,111.27915759905378,123.63253050612005,2.3068494234375443
146,111.46,112.58,111.46,112.08,213876,114.59,116.79,117.66,,110.6174582714867,123.72946376383314,2.2220744646205772
147,113.17,114.22,112.04,112.48,185780,113.95,116.51,117.55,,110.15479079934462,123.63699458754576,2.219069145719107
148,112.06,113.35,111.745,112.6,398337,113.37,116.22,117.46,,109.70091256032323,123.61741913699781,2.1752070638820276
149,113.27,113.935,112.5,113.14,225601,113.06,115.91,117.33,,109.44678347148084,123.43187988860517,2.1223351307475973
150,113.45,114.97,113.14,113.71,231711,112.91,115.48,117.22,,109.4281176809825,122.60823685494972,2.1014540499799117
151,112.31,114.175,112.31,112.91,196092,112.85,115.17,117.11,,109.33387810428474,121.69977400484035,2.084564474981346
152,113.36,114.93,113.21,114.6,192596,112.88,114.97,117.04,,109.243491611066,121.13228827974409,2.0799527267683935
153,115.01,115.9,113.92,114.51,264793,113.14,114.89,116.96,,109.20965203735172,120.93047409232383,2.0728132462849373
154,115.09,116.17,114.5,114.98,142327,113.45,114.74,116.88,,109.24182030677731,120.65168596519129,2.044040871550299
155,115.8,116.79,115.52,116.52,222482,113.94,114.71,116.81,,109.29511206064556,120.35253393715944,2.0273236664395635
156,118.12,118.39,116.185,116.85,233329,114.42,114.63,116.79,,109.3654101267084,120.29538281790803,2.0400148331224517
157,117.05,118.825,116.7,118.06,206674,115.03,114.59,116.78,,109.59244361095284,120.01548736587726,2.0460852021851337
158,117.7,118.91,117.25,117.67,236605,115.53,114.55,116.77,,109.72048068451555,119.80823694083648,2.0185076877433383
159,117.5,118.03,116.04,116.45,133934,115.84,114.49,116.8,,109.89470858916867,119.49804219576531,2.0164714243330994
160,114.72,116.59,114.22,116.34,198125,116.22,114.51,116.75,,109.8979740619379,119.4180316856132,2.041723465452164
161,116.71,117.23,116.19,116.27,95791,116.41,114.57,116.7,,109.83493846284615,119.47922142885135,1.9701717893484385
162,116.64,116.64,114.58,115.19,129430,116.48,114.65,116.64,,110.06705785394783,119.56765695802042,1.9765880901092645
163,116.05,117.56,115.22,117.0,295091,116.71,114.79,116.63,,110.10907871703019,119.76566889740113,2.004688940815746
164,117.27,118.4,117.27,117.75,160339,116.84,115.07,116.6,,110.27647239049327,120.06647969475196,1.9614968736146217
165,117.89,118.475,116.745,118.31,203380,117.0,115.37,116.62,,110.68941742485892,120.23395477481164,1.944961382642148
166,118.75,118.97,117.48,118.35,134930,117.04,115.68,116.66,,111.06281935185557,120.3103730486618,1.9124641410248513
167,117.35,117.49,115.93,117.39,169533,117.01,115.93,116.64,,111.46945691191705,120.31165934690193,1.948716702380218
168,117.17,117.19,115.61,115.65,187119,116.92,116.08,116.59,,112.01129595370526,120.11212258836527,1.9366655093530598
169,114.11,114.61,112.25,112.34,255596,116.47,116.04,116.48,,111.95255389899114,120.01986047834839,2.0411894015421272
170,112.3,113.1,110.3445,112.9,366544,116.1,116.0,116.38,,111.24784573435873,120.28818674037157,2.0922115871462608
171,116.25,116.76,113.54,114.14,510820,115.98,116.06,116.32,,111.45981842062885,120.16299497338406,2.2184821880643852
172,115.17,118.29,114.67,118.19,360554,116.11,116.24,116.32,,111.63731100119765,120.21011106217338,2.3564477460597866
173,118.5,121.46,118.329,119.57,378381,116.32,116.5,116.33,,111.65404985618555,120.96770059007265,2.421701478484087
174,120.0,120.02,118.1,119.05,241867,116.4,116.7,116.35,,111.68030139418774,121.27604343966759,2.385865658592367
175,120.61,123.1,120.43,122.81,297596,116.89,117.01,116.43,,111.37417329329215,122.29922970736871,2.5047323972643407
176,123.59,124.61,122.47,123.6,332389,117.58,117.35,116.5,,110.79756587755435,123.53028039660892,2.478680083174031
177,127.62,128.86,122.11,123.18,556380,118.42,117.61,116.6,,110.4463779949366,125.85205022620052,2.7837743629473155
178,123.39,128.8,122.9466,127.63,511397,120.12,118.11,116.79,,110.06445407557861,127.64487568295345,3.0030333370225075
179,127.75,127.75,124.365,125.2,320980,121.49,118.54,116.9,,109.6693509060486,128.91351938508313,3.0303166700923287
180,124.24,125.21,122.59,124.18,139680,122.6,118.93,116.95,,109.842849471558,129.51981476561224,3.0010083365143045
181,124.1,126.0,124.1,124.73,115844,123.33,119.36,117.06,,109.7389506290425,130.18782086418074,2.9223648839061402
182,126.28,127.0,125.57,126.74,321922,124.12,119.94,117.22,,109.78396521120874,130.90892167884223,2.8757673921985587
183,126.26,128.1,125.7,127.45,270075,125.06,120.46,117.44,,109.88925810709532,131.7466495396197,2.841784007041518
184,127.43,127.86,125.97,126.38,253527,125.45,120.89,117.61,,109.86002938379079,132.4518500348771,2.7737994351099813
185,126.7,127.615,126.0,127.22,350079,125.86,121.34,117.82,,109.98800915144473,133.02692249151173,2.6910280468878396
186,127.51,128.36,127.19,127.79,305291,126.37,121.81,118.0,,110.03730605408158,133.64579306387247,2.582383186395852
187,128.06,129.12,126.4024,126.87,217443,126.28,122.28,118.16,,110.4565368264525,134.20519433799709,2.59204153022472
188,128.16,128.47,126.875,127.88,409401,126.58,122.89,118.35,,111.01379046891074,134.50785093016782,2.521181420922954
189,128.48,128.48,125.77,126.36,204976,126.82,123.59,118.52,,112.48726632555498,134.29041884263003,2.5346684622856
190,126.55,127.3,126.08,126.91,78170,127.07,124.29,118.74,,114.89980572753727,133.19244242695012,2.440763572122343
191,126.79,126.93,125.685,126.32,122607,127.02,124.9,118.97,,116.76320775331908,132.4394362163206,2.3553518883993187
192,127.15,128.58,126.42,127.81,110298,127.06,125.38,119.26,,118.68770254649512,131.8189884693019,2.3485410392279404
193,127.36,128.05,125.72,126.26,98417,127.05,125.72,119.49,,119.76157297494214,131.54885333091948,2.3472166792830884
194,126.07,127.11,125.15,125.87,76735,126.9,126.06,119.77,,121.19526242312637,130.49235303972378,2.319558345048582
195,125.48,127.8,125.48,127.73,121048,126.89,126.31,120.08,,122.09638288155578,129.9994307263922,2.3195898918308253
196,127.99,128.99,127.64,128.55,82506,127.08,126.55,120.41,,122.42896939160225,129.8387295447283,2.250333470985767
197,128.29,130.9,127.9381,129.09,132518,127.21,126.85,120.74,,122.93991524386182,130.33051692279213,2.301159651629641
198,129.13,130.18,128.66,129.53,112044,127.56,126.94,121.08,,123.23400130994376,130.577922140218,2.2453625336560963
199,129.47,131.09,129.02,130.47,194405,127.96,127.21,121.43,112.4,123.2557262439262,131.0880007121622,2.232836638394946
200,129.59,131.1,129.59,130.46,133337,128.42,127.52,121.76,112.53,123.7510725473071,131.31854956342247,2.1812054499381635
201,131.05,131.99,128.2,128.41,145900,128.49,127.71,122.07,112.66,124.11505630949243,131.78621098127996,2.2961193463711536
202,128.56,130.65,128.31,130.34,119406,128.94,127.88,122.38,112.8,124.22627547180853,131.96427692135373,2.2992536787732143
203,130.99,131.7399,130.2,131.11,214561,129.52,128.07,122.72,112.94,124.13328434420616,132.36475582629245,2.2450141302894147
204,131.29,133.69,131.0,133.13,244429,130.12,128.41,123.08,113.09,123.97154121250395,133.1849861019783,2.2767988352687425
205,134.0,134.67,133.64,134.55,333405,130.79,128.77,123.44,113.23,123.4121740271813,134.10764055785472,2.2241703470352605
206,132.78,135.0,131.5,134.84,142041,131.43,129.12,123.8,113.38,123.32661366772324,134.9711189595365,2.315301036532742
207,134.65,136.22,134.01,134.73,183236,132.0,129.52,124.13,113.52,123.0454898075546,136.01315140625013,2.307779533923261
208,134.52,135.75,134.45,134.52,146110,132.45,129.85,124.47,113.68,122.81824190683928,136.77100902699667,2.235795281500172
209,135.0,136.37,134.65,135.7,72391,133.04,130.32,124.86,113.84,122.87452538099406,137.54807936633696,2.2082384756787308
210,136.19,137.14,135.055,135.67,74962,133.84,130.75,125.24,114.03,122.97955688836267,138.2863047560938,2.199435727415963
211,136.27,136.75,134.8387,135.24,61926,134.39,131.2,125.62,114.23,123.31720721601124,138.74490840833116,2.1788546040291092
212,135.91,137.36,135.456,136.38,70210,134.97,131.63,126.05,114.43,123.5915596275974,139.34048245182152,2.174650703741316
213,136.77,137.32,135.61,136.97,106212,135.4,132.16,126.44,114.68,124.11845768400933,139.75313390435682,2.141461367759792
214,135.92,137.97,133.68,134.05,281139,135.34,132.57,126.77,114.86,125.03547940439573,140.00762255190625,2.2949284129198064
215,134.13,135.29,133.54,133.79,157556,135.23,132.88,127.08,115.05,126.03179160134881,139.79162306832333,2.256004954854106
216,134.22,137.97,134.22,137.72,224162,135.56,133.33,127.47,115.24,126.62487711538654,139.98899177106603,2.3934331723645275
217,137.52,140.0,136.505,139.7,138122,136.14,133.87,127.91,115.48,127.10904062229767,140.7028864877101,2.4721165171956327
218,139.57,140.62,137.755,139.05,100596,136.51,134.34,128.38,115.76,127.43524907803877,141.31023341110054,2.500179623110231
219,139.5,139.87,138.38,138.71,82840,136.85,134.75,128.91,116.01,127.76331247788188,141.69423978340848,2.4280239357452156
220,138.81,139.23,137.09,138.07,314837,137.16,135.13,129.41,116.25,128.24248300358022,141.8261668995033,2.4074507974776993
221,137.95,139.58,136.14,138.54,380068,137.4,135.64,129.9,116.46,129.24223678071849,142.00474727427877,2.4812043119435803
222,138.5,140.71,137.52,139.28,156386,137.66,136.09,130.32,116.69,130.36579751572063,141.99545332927667,2.5318325753761814
223,139.04,141.33,138.37,138.83,128710,138.19,136.47,130.71,116.88,131.04943950195775,142.09793914727402,2.5624159628493124
224,139.58,140.62,137.25,137.25,178198,138.57,136.68,131.07,117.07,131.76538423194833,142.22274771172036,2.620100536931505
225,137.73,140.75,137.49,140.62,193695,138.89,136.98,131.43,117.29,131.96098910063387,142.3945450612115,2.6829504985792547
226,140.27,141.125,138.01,138.01,176250,138.71,137.14,131.72,117.5,132.7103504655919,142.57853824482953,2.7138111772521656
227,137.86,138.38,137.11,138.19,182594,138.61,137.31,132.02,117.72,132.96984057913363,142.52884679984265,2.6106818074484384
228,138.16,139.92,137.85,139.57,156963,138.71,137.57,132.26,117.91,133.16034698214457,142.50617932554397,2.572061678344978
229,139.43,140.0,137.08,138.8,99822,138.79,137.72,132.53,118.1,133.36731507353798,142.50848559011263,2.5969144156060504
230,137.53,137.53,133.15,133.25,140782,138.2,137.6,132.71,118.25,132.98620301511787,142.48508374322225,2.8149919573484756
231,134.08,135.8,133.6064,135.03,121293,137.73,137.59,132.91,118.38,132.76653124814743,142.6008939366867,2.796063960395014
232,134.43,135.36,131.82,132.95,183439,137.07,137.42,133.04,118.54,132.06641229869555,142.8047620122197,2.8492022489382287
233,134.13,134.39,131.805,134.06,153040,136.72,137.27,133.17,118.69,131.4424302377792,143.1194589779296,2.8303306597283537
234,135.05,138.12,134.74,136.93,148301,136.31,137.42,133.38,118.87,131.5827845149151,143.12121579669576,2.9181641840334716
235,136.16,137.3,135.385,136.55,103517,136.15,137.56,133.57,119.04,131.81490283486286,142.95876739085486,2.8465095994596536
236,136.12,138.4,135.0,137.9,208557,136.12,137.56,133.77,119.22,131.91122987560402,142.96324306106172,2.886044628069679
237,139.46,140.73,138.715,140.56,129043,136.23,137.61,134.04,119.39,131.86355140332523,143.05283552946236,2.8820414403504153
238,141.25,142.0,140.53,141.99,130728,136.58,137.75,134.33,119.57,131.63381362576183,143.28216043193746,2.781181337468243
239,141.96,142.89,141.22,142.15,143136,137.57,137.93,134.64,119.74,131.36571348349227,143.75879106094732,2.701811241934796
240,143.0,144.105,142.505,143.14,95024,138.47,138.18,134.97,119.93,130.97489720600637,144.50226669436475,2.648467581796595
241,143.5,144.32,142.06,142.97,121109,139.58,138.4,135.3,120.13,130.8178207290366,145.18937950843772,2.6207198973825516
242,142.38,144.76,142.38,144.5,83893,140.74,138.66,135.63,120.29,130.6226084944825,145.83083905590954,2.6035256189980833
243,144.61,144.72,142.9,143.67,140786,141.49,138.9,135.98,120.45,130.40456633848342,146.35603279536625,2.5475595033553624
244,143.75,144.175,142.445,143.11,164136,142.22,139.2,136.33,120.61,130.3361577970808,146.79556154461363,2.489162395972838
245,142.62,143.18,141.3,141.3,153615,142.6,139.23,136.6,120.79,130.36593595257554,147.04574527748417,2.445650796260492
246,138.57,138.57,131.61,132.25,422755,141.68,138.94,136.67,120.92,129.5306655989057,146.95401337908828,2.963104310813314
247,131.25,131.37,127.5,129.25,297300,140.26,138.5,136.68,121.03,127.86376463493474,147.65853921132418,3.090739717183792
248,127.82,128.72,126.78,128.33,372420,138.72,137.93,136.65,121.14,126.2256110698979,148.56231179697212,3.0464011659563783
249,128.26,129.04,127.8,128.76,174301,137.13,137.43,136.62,121.26,125.04358134983434,149.08316536516483,2.9173725112452082
250,128.77,130.91,128.77,130.25,337684,135.71,137.28,136.61,121.39,124.40994082667487,149.32928756014203,2.8625601890134083
251,131.06,131.57,129.555,130.25,318159,134.13,137.04,136.65,121.5,123.89641313955089,149.491924456803,2.8020201755124496
252,130.78,132.0,129.875,130.62,251943,132.68,136.93,136.66,121.62,123.6328409783521,149.60115555862507,2.753661591547275
253,130.44,130.6646,129.47,130.35,289663,131.26,136.74,136.64,121.75,123.31526474678047,149.7791386810919,2.642300049293899
254,130.37,132.18,129.5037,131.125,162486,130.13,136.45,136.6,121.9,122.76136998633788,149.75006852422376,2.6447286172014777
255,130.89,131.9,130.125,130.4,451773,129.93,136.14,136.52,122.04,122.28945314562873,149.74301425100336,2.5826051445442295
256,131.14,134.14,130.41,134.09,151814,130.46,135.95,136.5,122.2,121.89513111732704,149.5971876395239,2.6652762056482118
257,134.83,138.48,134.1,137.72,197644,131.51,135.81,136.56,122.37,121.79711258125457,149.3871438542037,2.7884707623876244
258,138.68,140.67,137.68,137.69,207520,132.5,135.6,136.63,122.54,121.87468667975989,149.2212823940583,2.8028657079313644
259,138.21,140.12,137.935,139.31,124384,133.51,135.45,136.7,122.71,122.00433682176472,148.86007389282187,2.7762324430791243
260,139.19,140.415,138.74,139.4,143067,134.52,135.27,136.77,122.88,122.24359398497651,148.31174706916337,2.6975729828591857
261,140.0,141.24,139.2648,140.95,155792,135.67,135.17,136.89,123.06,122.44197981385926,147.80592292337116,2.6459749126549585
262,141.78,143.03,141.015,142.12,327875,136.98,135.05,137.0,123.23,122.57155170485731,147.47656699046715,2.6055481331796053
263,141.71,142.1,139.3316,140.6,224436,138.03,134.89,137.07,123.37,122.89545625109972,146.98662572561295,2.6186089808096336
264,139.91,141.74,139.376,141.19,136735,139.23,134.8,137.22,123.51,123.1911153986437,146.53623249890683,2.6004226250375173
265,141.34,142.47,140.94,141.52,143396,140.06,134.81,137.37,123.66,123.22926535991327,146.4037180140109,2.5239638661062664
266,142.06,142.33,139.04,139.31,270268,140.23,135.16,137.4,123.8,123.35218746561208,146.91513088120533,2.5786807328129635
267,138.97,141.86,138.26,141.59,206875,140.67,135.78,137.44,123.95,124.1630947549865,147.4599687316029,2.651632109040611
268,140.53,142.56,140.16,140.84,242431,140.84,136.4,137.48,124.09,125.18580447609361,147.73889092319828,2.633658386966282
269,141.59,144.33,141.16,141.88,263347,141.11,137.06,137.54,124.24,126.11968249526853,148.13038035110583,2.69482564504012
270,141.4,143.23,140.45,142.55,202723,141.29,137.68,137.63,124.38,127.07327911434925,148.35229940346525,2.7009095275372546
271,143.0,144.82,142.19,144.81,226031,141.59,138.4,137.76,124.54,127.92718010317115,148.7202319872667,2.6958445612845936
272,144.24,145.9,143.39,144.8,216669,142.05,139.11,137.87,124.7,128.8124094976265,149.12079906355112,2.6825699497642668
273,144.33,144.41,142.6,142.96,206159,142.25,139.74,137.95,124.86,130.09321186048265,148.76830642563755,2.648100667638249
274,143.03,143.47,141.23,141.74,302254,142.28,140.27,138.04,125.04,131.71212039390417,148.24512855432772,2.6189506199498034
275,142.77,143.98,141.38,143.83,193737,142.78,140.94,138.1,125.23,133.50582442820232,147.22072504689578,2.617597004239103
276,144.95,144.95,143.34,144.51,155880,143.1,141.47,138.23,125.43,135.66971607532574,146.33153144683874,2.5456257896505945
277,144.04,145.99,143.32,145.99,148765,143.67,141.88,138.39,125.62,136.9024078412552,146.4622322538989,2.55450966181841
278,145.28,145.5,143.38,143.61,157137,143.87,142.18,138.47,125.8,137.23810707140893,146.69890973237813,2.5584732574028104
279,143.8,143.96,142.19,143.76,117661,144.0,142.4,138.57,125.99,137.6748670855631,146.57975698525325,2.5021537390168964
280,144.42,145.3,143.28,145.22,107668,144.05,142.69,138.81,126.18,137.94228837019443,146.59518108406013,2.467714186229976
||||||| 599f065
0,99.73,102.205,99.315,101.17,594153,,,,,,,2.8900000000000006
1,101.62,103.76,100.81,103.64,270090,,,,,,,2.894285714285715
2,103.79,105.72,102.2,102.75,276635,,,,,,,2.938979591836735
3,105.39,107.63,104.44,107.36,199266,,,,,,,3.0776239067055395
4,105.34,105.8,102.65,103.98,236666,,,,,,,3.1942221990837147
5,101.61,107.41,101.33,107.28,493180,,,,,,,3.4003491848634493
6,102.74,105.0,99.478,101.46,529389,,,,,,,3.7147528145160607
7,103.6,103.99,99.385,103.91,415301,,,,,,,3.7783418991934843
8,101.67,101.67,97.92,99.05,639687,103.4,,,,,,3.936317477822521
9,92.48,96.4,87.5,94.4,788223,102.65,,,,,,4.480151943692341
10,98.08,99.44,91.12,96.42,476058,101.85,,,,,,4.754426804857173
11,87.4,94.48,87.4,87.87,573698,100.19,,,,,,5.0591106045102325
12,89.95,96.95,89.48,96.45,533056,98.98,,,,,,5.346316989902359
13,91.69,96.98,90.34,96.74,614591,98.18,,,,,,5.4387229191950475
14,96.49,101.22,93.59,98.64,299073,97.22,,,,,,5.595242710681116
15,98.81,99.9825,89.13,92.4,709083,96.21,,,,,,5.970761088489607
16,92.06,93.24,79.84,83.86,642938,93.98,,,,,,6.501421010740349
17,87.27,88.32,82.69,88.06,495291,92.76,,,,,,6.439176652830324
18,89.0,93.66,86.22,90.17,524600,92.29,,,,,,6.510664034771015
19,90.85,97.34,90.216,96.2,355720,92.27,97.59,,,79.18782195508807,110.6743351562159,6.5577594608588
20,94.54,95.84,92.1,93.89,435571,92.93,97.23,,,79.05147456965177,110.46638487646786,6.382205213654601
21,94.97,100.96,94.37,100.48,387313,93.38,97.07,,,79.14768986172164,110.17758934261747,6.4313334126792725
22,100.52,102.75,97.44,99.54,465866,93.69,96.91,,,79.41322036407301,109.74700730110231,6.351238168916468
23,97.71,98.675,95.44,96.32,250269,93.44,96.36,,,80.04201867757745,108.55374111470917,6.190435442565293
24,95.81,97.14,94.12,96.14,391636,93.85,95.96,,,80.55599506427704,107.59429647158653,5.963975768096343
25,94.88,97.42,93.36,94.2,284999,95.0,95.31,,,81.01215333903718,106.08419483261976,5.827977498946605
26,97.07,101.18,97.07,100.76,451661,96.41,95.28,,,81.22276918603158,105.36238245446566,5.910264820450419
27,103.55,103.55,99.22,101.12,290436,97.63,95.14,,,81.24132029988643,105.26697303161811,5.797388761846818
28,102.65,105.29,100.64,104.205,288543,98.52,95.39,,,80.94879528978338,105.99659079944756,5.715432421714903
29,105.04,108.03,104.23,107.43,353358,100.02,96.04,,,80.56704592910069,107.6948436878548,5.580401534449553
30,106.99,107.43,102.3,102.33,182696,100.23,96.34,,,80.35000151085507,108.91269755040928,5.548229996274586
31,104.56,105.3658,103.36,103.76,190351,100.7,97.13,,,80.62046838597573,109.60164400669368,5.368770710826401
32,102.28,104.19,100.61,100.82,386772,101.2,97.35,,,80.99822924873742,110.08784936668346,5.241001374338801
33,103.03,103.03,99.68,101.85,253933,101.83,97.61,,,81.39715256475331,110.38101593036588,5.105929847600315
34,103.86,105.02,102.4,102.85,216948,102.79,97.82,,,81.42906544268975,110.78891268268869,4.967649144200292
35,101.86,107.94,101.13,106.94,774451,103.48,98.55,,,82.10101629367372,111.71334784118845,5.099245633900272
36,105.85,106.99,104.115,106.1,409805,104.03,99.66,,,85.08715213382479,112.11893687133933,4.940370945764538
37,106.99,107.035,104.12,106.31,340048,104.27,100.57,,,87.8517572771384,111.3174775678273,4.795701592495642
38,106.62,107.32,104.95,105.02,308738,104.0,101.31,,,90.01091036773775,111.22341897764016,4.622437193031667
39,105.41,105.41,103.09,104.37,263752,104.22,101.72,,,91.50888478245326,111.20661428481216,4.457977393529405
40,109.33,114.1,106.88,112.56,415411,105.2,102.66,,,92.46643323736433,112.59796659822304,4.834550436848733
41,112.6,114.66,110.99,111.18,246823,106.35,103.19,,,92.52669658714373,114.29077725252445,4.75136826278811
42,112.56,113.63,109.82,110.11,202200,107.27,103.72,,,92.5500758111914,115.50780986243424,4.68412767258896
43,108.99,110.07,106.34,107.1,432210,107.74,104.26,,,93.41011660846709,115.68373297309606,4.618832838832605
44,110.56,110.56,104.71,106.14,472341,107.65,104.76,,,94.78892985018693,115.50071994021705,4.706773350344563
45,105.53,107.325,105.08,106.82,286955,107.73,105.39,,,96.69868296395293,114.74262248913627,4.530932396748524
46,106.78,107.63,105.4,105.53,196363,107.65,105.63,,,97.79243300445212,114.45433693307922,4.366580082695058
47,106.77,107.05,104.76,104.88,209940,107.63,105.82,,,98.48107113414628,114.34776119072906,4.218252933931125
48,105.52,106.89,105.14,105.38,212534,107.74,105.87,,,98.95066294153588,114.33011930553674,4.060520581507474
49,106.98,107.985,106.56,107.67,236238,107.2,105.89,101.27,,98.98916309257548,114.3278322321951,3.9565548256855116
50,106.66,107.505,106.08,106.31,225764,106.66,106.08,101.38,,99.24646971103542,114.33029851408318,3.787515195279404
51,106.43,106.43,103.85,103.85,160803,105.96,106.09,101.38,,99.29286342737437,114.30841907947435,3.7012641099023047
52,103.39,103.39,101.645,102.42,212336,105.44,106.17,101.37,,99.4927483907325,114.38099340816437,3.59438810205214
53,101.01,102.62,99.11,102.44,224926,105.03,106.2,101.27,,99.34373236878656,114.42994250635122,3.5883603804769875
54,101.47,101.7,100.045,101.56,274689,104.45,106.13,101.23,,98.91484243859504,114.73782231484759,3.5031203533000594
55,104.07,105.15,102.95,104.17,222330,104.3,106.0,101.16,,99.18756290887347,114.69912567816525,3.5093260423500556
56,103.79,105.7475,103.16,103.62,184618,104.16,105.87,101.21,,99.09969100113092,114.68422013077642,3.443481325039338
57,104.45,105.515,104.08,104.31,106886,104.04,105.77,101.21,,99.09674499713023,114.66666810490037,3.3328755161079564
58,104.44,105.71,104.44,105.13,135763,103.76,105.78,101.34,,99.07078298121795,114.63254817952418,3.1948129792431015
59,104.97,105.25,103.71,104.97,117911,103.61,105.81,101.55,,99.13248485846448,114.63448830508177,3.0766120521543088
60,107.34,110.19,106.78,109.59,289223,104.25,105.66,101.81,,99.13535928258663,113.86694436768347,3.229711191286144
61,111.07,112.65,110.35,112.57,240395,105.37,105.73,102.31,,99.24855790276719,113.3398772266384,3.2175889633371337
62,113.33,113.33,110.94,111.59,195016,106.39,105.8,102.61,,99.0653840239693,113.25987177228693,3.15847546595591
63,111.1,111.53,109.71,111.44,132519,107.49,106.02,102.9,,98.8498799015553,113.51233651024889,3.0671557898162027
64,111.28,111.88,110.6,111.43,216057,108.29,106.28,103.16,,98.63829158432688,113.75135836344317,2.9395018048293315
65,111.75,112.47,110.94,112.07,181986,109.23,106.55,103.55,,98.4530364002787,114.4131849109874,2.8388231044843795
66,112.7,114.1,112.7,113.45,155626,110.25,106.94,104.14,,98.1219705633912,115.33822606728097,2.7810500255926383
67,113.5,113.5,111.015,112.21,138958,111.04,107.31,104.63,,98.12612576132145,116.05999204371865,2.759903595193164
68,113.8,114.28,112.905,113.58,175360,111.99,107.72,105.09,,97.99622873884769,116.856680461687,2.710624766965082
69,112.82,114.0,112.29,113.54,194349,112.43,108.01,105.44,,97.91082073466302,117.50015938225451,2.6391515693247185
70,112.78,113.45,111.91,112.475,247902,112.42,108.32,105.81,,97.93434526833681,118.00911065833576,2.5670693143729535
71,113.0,113.0,110.82,111.67,310216,112.43,108.71,106.04,,98.28216906116583,118.4007549199082,2.5394215062034573
72,110.0,110.61,104.21,104.32,276051,111.64,108.81,106.13,,98.68631446170998,118.29790406061117,2.8908913986174967
73,106.69,107.53,104.74,106.02,58088,111.04,108.99,106.33,,99.7794905016641,117.92455468587443,2.9136848701448193
74,103.44,106.54,103.065,105.41,195172,110.3,109.18,106.51,,100.45000849413128,117.33242011126256,2.9537788079916187
75,108.3,109.09,106.86,107.39,188571,109.62,109.34,106.78,,101.00625181363138,117.1274459544436,3.005651750277932
76,108.19,108.65,106.37,106.94,152749,109.04,109.51,106.9,,101.50791773569473,116.95108637434869,2.953819482400937
77,106.28,107.97,105.97,107.1,136329,108.32,109.64,107.02,,101.80354729307338,116.73745136135904,2.8856895193722987
78,107.21,107.99,106.1,107.63,205760,107.66,109.77,107.09,,102.05995237555639,116.52011405305211,2.814568839417135
79,106.94,107.67,105.5,107.55,177875,107.11,109.9,107.09,,102.38650572555791,116.21705386845306,2.768528208030197
80,108.46,108.46,106.92,107.49,177306,106.65,109.79,107.19,,102.40212726700555,116.24518286928621,2.680776193170897
81,106.58,107.52,105.85,105.93,393235,106.83,109.46,107.24,,102.10480005641641,116.13349973467103,2.60857789365869
82,105.41,107.63,103.78,107.58,230861,107.0,109.26,107.37,,101.52987071074946,115.86080483010238,2.6972509012544976
83,107.12,108.69,106.17,107.7,316312,107.26,109.07,107.49,,101.34333947129741,115.7419942735986,2.684590122593462
84,108.24,110.19,107.89,109.28,141427,107.47,108.97,107.62,,101.32810606577969,115.60372153532158,2.6706908281225004
85,109.13,112.28,109.13,111.84,302554,108.01,108.96,107.71,,101.37326460940182,115.57791705523012,2.7049271975423226
86,111.91,112.665,110.95,112.52,196549,108.61,108.91,107.84,,101.53237965741677,115.32126965449748,2.6342181120035852
87,113.44,115.01,113.44,114.97,213218,109.43,109.05,108.02,,101.28386981667957,115.64189140983116,2.623916818289044
88,115.99,116.66,114.18,115.25,212956,110.28,109.13,108.22,,101.11226249952024,116.22143938561862,2.613637045554112
89,114.64,116.0,114.18,115.09,280935,111.13,109.21,108.44,,100.89428234793495,116.64364782932707,2.5569486851573893
90,114.79,115.75,112.59,112.93,160006,111.91,109.23,108.44,,100.84034950687094,117.07255665962406,2.6000237790747187
91,113.16,114.14,111.405,113.83,272403,112.6,109.34,108.5,,100.81492381343489,117.23978787987289,2.609664937712239
92,114.17,115.17,112.395,115.06,190934,113.42,109.88,108.59,,101.19222252273346,117.77973304482086,2.621474585018508
93,114.96,116.265,113.27,113.43,182870,113.88,110.25,108.72,,101.51507893312238,118.44878612282702,2.6481549718029007
94,113.76,116.5,113.69,116.34,156651,114.38,110.79,108.93,,102.26098920350057,118.96242640346779,2.6782867595312645
95,117.44,118.29,116.54,117.98,269467,114.99,111.32,109.15,,102.15673619038591,119.87466027958705,2.6262662767076033
96,118.04,118.49,116.8,117.365,190651,115.25,111.84,109.39,,102.25740587600416,120.6698280527638,2.5593901140856317
97,118.0,119.71,117.34,119.46,198097,115.72,112.46,109.68,,102.52539921761662,121.52399179023317,2.5458622487938003
98,119.4,119.75,118.27,119.27,155570,116.18,113.04,109.95,,102.84101778786565,122.2078336483328,2.4697292310228147
99,119.58,119.87,117.67,118.2,341875,116.77,113.58,110.17,,103.51884347691859,122.70127773552889,2.4504628573783283
100,118.25,118.98,117.41,118.475,347333,117.29,114.12,110.41,,104.10006178729556,122.95567239500991,2.387572653279877
101,118.39,119.23,118.09,118.39,163018,117.66,114.75,110.7,,105.01389198245835,122.9320963099457,2.298460320902743
102,119.0,119.785,118.38,118.84,225895,118.26,115.31,111.03,,106.75430320712846,122.7471300691777,2.234641726552547
103,118.83,120.45,118.5,119.85,254417,118.65,115.92,111.38,,108.11305759669538,122.57798858187569,2.214310174655937
104,119.81,119.81,117.78,118.02,298483,118.65,116.36,111.71,,109.29069078128258,122.31545232938635,2.204002305037655
105,118.72,119.41,117.33,118.75,421108,118.81,116.7,112.0,,110.35414990368297,122.18301929569448,2.1951449975349657
106,117.75,118.91,116.7,117.85,635354,118.63,116.97,112.28,,111.09064025280912,121.89221028951836,2.1962060691396106
107,115.0,117.9,111.22,115.1,1073859,118.16,116.97,112.5,,110.65221844931112,121.7963276673348,2.5164770642010676
108,116.85,119.68,114.85,118.79,406742,118.23,117.15,112.77,,110.71913292373192,121.95428581844472,2.6817287024724212
109,118.95,120.18,118.22,118.7,402336,118.25,117.33,113.05,,110.8571746350673,122.11153375920354,2.6301766522958205
110,119.56,120.67,118.22,118.36,278050,118.25,117.6,113.22,,111.29511803918017,122.26492413009807,2.617306891417548
111,118.82,120.11,116.68,117.66,442958,118.12,117.79,113.32,,112.10845928632709,121.91885585066544,2.6753563991734373
112,117.07,119.37,116.78,119.32,343779,118.06,118.01,113.48,,112.77171228455227,121.53356302411315,2.669259513518192
113,118.74,118.74,116.9,117.0,318656,117.95,118.19,113.59,,113.29887212613224,121.24002663387517,2.651455262552606
114,118.02,119.35,116.53,116.66,271045,117.72,118.2,113.69,,113.76172387416611,120.87306265010567,2.6634941723702767
115,116.92,118.57,116.75,118.1,305677,117.74,118.21,113.81,,113.77727309865253,120.84501797982787,2.609673160058114
116,117.24,119.47,117.24,118.53,138696,118.12,118.27,113.91,,113.79961580249419,120.81923206453271,2.582553648625392
117,117.88,119.635,117.7,118.4,105751,118.08,118.21,114.04,,113.80669823157119,120.81336482561417,2.5362998165807213
118,119.14,119.92,118.01,118.24,259074,118.03,118.16,114.13,,113.81200767680325,120.83097823830697,2.491564115396384
119,117.91,118.64,116.77,117.87,283443,117.98,118.15,114.22,,113.77841614272005,120.81096630558201,2.4471666785823567
120,118.7,119.37,117.32,117.75,225856,117.99,118.11,114.32,,113.77605715415528,120.81387552875707,2.418797630112189
121,117.06,118.125,116.6,117.47,247441,117.78,118.06,114.44,,113.73913182954824,120.88265205145098,2.354954942247033
122,117.12,118.35,116.4,117.8,280336,117.87,118.01,114.71,,113.70833173843758,120.87127449470223,2.326029589229387
123,118.2,119.76,118.2,119.18,409160,118.15,117.98,114.97,,113.72454345270233,120.7603449050137,2.299884618570146
124,119.54,119.54,117.93,118.13,179243,118.15,117.98,115.23,,113.72140483622404,120.73186594148535,2.250607145815135
125,117.99,119.0,117.56,118.59,172110,118.16,117.98,115.45,,113.72319626471597,120.71552105610563,2.192706635399768
126,118.63,120.62,118.5,120.05,373349,118.34,118.08,115.71,,113.725843501948,120.91046214477055,2.187513304299785
127,119.7,119.7,118.0,118.2,531281,118.34,118.24,115.94,,115.49142615272004,120.84857897784998,2.177690925421229
128,118.58,119.16,117.78,118.3,229582,118.39,118.22,116.15,,116.03809904166233,120.82312290749238,2.1207130021768554
129,117.94,119.64,117.94,119.48,210542,118.58,118.25,116.39,,116.05386675896065,120.75440014549272,2.0906620734499373
130,119.75,122.44,118.97,122.15,234496,119.1,118.44,116.68,,115.95795381383019,121.33360004829463,2.189186211060656
131,122.28,122.28,118.5,119.17,400403,119.25,118.52,116.95,,116.01889614394666,121.81425747864486,2.3028157674134664
132,120.04,120.3,116.49,118.71,347666,119.2,118.49,117.17,,115.9691279381141,121.880662333325,2.4104717840267904
133,118.13,118.13,116.04,116.07,270480,118.97,118.44,117.34,,115.81099098760451,121.91654234173507,2.4290095137391616
134,116.64,118.63,116.64,117.89,226192,118.89,118.5,117.51,,115.82887398466909,121.91896027455573,2.438365977043507
135,118.31,118.91,116.71,117.19,437229,118.57,118.46,117.61,,115.82309481650807,121.91051903777736,2.4213398358261142
136,117.88,118.71,117.13,118.38,172654,118.59,118.45,117.73,,115.81368904967513,121.904715255353,2.361244133267106
137,119.37,120.06,118.47,119.0,205667,118.67,118.48,117.81,,115.79352168808512,121.93707260299034,2.312583838033742
138,119.44,119.8,118.12,118.3,99643,118.54,118.48,117.87,,115.79137266828697,121.92788971278755,2.2673992781741887
139,119.4813,119.4813,117.57,117.77,128827,118.05,118.48,117.93,,115.86650676334452,121.93086780117216,2.241963615447462
140,116.5,117.24,115.08,115.95,242250,117.7,118.39,117.99,,115.42485551099307,122.05221538862666,2.273966214344072
141,116.58,116.75,114.23,115.07,258112,117.29,118.27,118.01,,114.86764694186175,122.202835579193,2.291540056176638
142,113.6,114.04,111.82,113.45,124041,117.0,118.05,117.98,,113.62919465092482,122.86773249941663,2.3600014807354497
143,113.56,114.67,113.56,114.34,160038,116.61,117.81,118.0,,113.1021615473395,123.12449425806383,2.2785728035400608
144,113.68,114.53,111.71,112.12,124889,116.04,117.51,117.91,,112.18488439571524,123.3056795767656,2.317246174715771
145,111.9,113.17,111.16,112.27,184050,115.36,117.19,117.8,,111.27915759905399,123.63253050612009,2.295300019378931
146,111.46,112.58,111.46,112.08,213876,114.59,116.79,117.69,,110.61745827148692,123.72946376383317,2.211350017994722
147,113.17,114.22,112.04,112.48,185780,113.95,116.51,117.55,,110.15479079934485,123.63699458754579,2.2091107309950986
148,112.06,113.35,111.745,112.6,398757,113.37,116.22,117.42,,109.70091256032345,123.61741913699785,2.1659599644954484
149,113.27,113.935,112.5,113.14,225601,113.06,115.91,117.32,,109.44678347148108,123.43187988860521,2.1137485384600594
150,113.45,114.97,113.14,113.71,233473,112.91,115.48,117.22,,109.42811768098281,122.60823685494975,2.0934807857129125
151,112.31,114.175,112.31,112.91,196092,112.85,115.17,117.11,,109.33387810428508,121.69977400484039,2.0771607295905614
152,113.36,114.93,113.21,114.6,193050,112.88,114.97,117.03,,109.24349161106635,121.13228827974413,2.0730778203340936
153,115.01,115.9,113.92,114.51,264793,113.14,114.89,116.92,,109.20965203735207,120.93047409232388,2.0664294045959446
154,115.09,116.17,114.5,114.98,142327,113.45,114.74,116.86,,109.24182030677771,120.65168596519135,2.038113018553377
155,115.8,116.79,115.52,116.52,222482,113.94,114.71,116.82,,109.29511206064598,120.35253393715948,2.0218192315138506
156,118.12,118.39,116.185,116.85,233329,114.42,114.63,116.8,,109.3654101267088,120.29538281790808,2.034903572120004
157,117.05,118.825,116.7,118.06,206674,115.03,114.59,116.86,,109.59244361095327,120.0154873658773,2.0413390312542896
158,117.73,118.91,117.25,117.67,241328,115.53,114.55,116.83,,109.720480684516,119.80823694083654,2.01410052902184
159,117.5,118.03,116.04,116.45,133934,115.84,114.49,116.79,,109.89470858916917,119.49804219576535,2.012379062663137
160,114.72,116.59,114.22,116.34,200605,116.22,114.51,116.75,,109.89797406193843,119.41803168561324,2.0379234153300563
161,116.71,117.23,116.19,116.27,95791,116.41,114.57,116.72,,109.83493846284665,119.47922142885139,1.96664317137791
162,116.64,116.64,114.58,115.19,124662,116.48,114.65,116.64,,110.06705785394828,119.56765695802046,1.973311516279488
163,116.05,117.56,115.22,117.0,295091,116.71,114.79,116.64,,110.10907871703061,119.76566889740118,2.0016464079738108
164,117.27,118.76,117.27,117.75,172974,116.84,115.07,116.66,,110.27647239049367,120.13185376541064,1.984385950261396
165,117.89,118.475,116.745,118.31,203380,117.0,115.37,116.66,,110.6894174248593,120.29543759387309,1.9662155252427242
166,118.75,118.97,117.48,118.35,130916,117.04,115.68,116.66,,111.06281935185592,120.36819677364524,1.9322001305825294
167,117.35,117.49,115.93,117.39,169533,117.01,115.93,116.64,,111.46945691191742,120.36781882556548,1.967042978398062
168,117.17,117.19,115.61,115.65,187119,116.92,116.08,116.59,,112.01129595370563,120.16840479050015,1.9536827656553435
169,114.11,114.61,112.25,112.34,255596,116.47,116.04,116.48,,111.95255389899151,120.07688658378908,2.056991139537105
170,112.3,113.1,110.3445,112.9,366544,116.1,116.0,116.38,,111.24784573435903,120.34314842988981,2.106884629570169
171,116.25,116.76,113.54,114.14,510820,115.98,116.06,116.32,,111.45981842062915,120.21783254965273,2.2321071560294428
172,115.17,118.29,114.67,118.19,360554,116.11,116.24,116.32,,111.63731100119796,120.2622157331197,2.36909950202734
173,118.5,121.46,118.329,119.57,378381,116.32,116.5,116.33,,111.65404985618584,121.00911971710828,2.4334495375968155
174,120.0,120.02,118.1,119.05,241867,116.4,116.7,116.35,,111.68030139418798,121.3126704067586,2.396774570625615
175,120.61,123.1,120.43,122.81,297596,116.89,117.01,116.43,,111.3741732932923,122.3272533683248,2.514862101295214
176,123.59,124.61,122.47,123.6,332389,117.58,117.35,116.5,,110.79756587755446,123.55202692056469,2.4880862369169847
177,127.62,128.86,122.11,123.18,556380,118.42,117.61,116.6,,110.44637799493667,125.86742462682254,2.7925086485657724
178,123.39,128.8,122.9466,127.63,511397,120.12,118.11,116.79,,110.06445407557868,127.65616063515627,3.0111437450967893
179,127.75,127.75,124.365,125.2,320980,121.49,118.54,116.9,,109.6693509060486,128.92133794712862,3.037847763304162
180,124.24,125.21,122.59,124.18,139680,122.6,118.93,116.95,,109.84284947155797,129.52430630370839,3.008001494496721
181,124.1,126.0,124.1,124.73,115844,123.33,119.36,117.06,,109.73895062904244,130.18914312584727,2.928858530604099
182,126.28,127.0,125.57,126.74,321922,124.12,119.94,117.22,,109.78396521120867,130.9065487415011,2.8817972069895204
183,126.26,128.1,125.7,127.45,270075,125.06,120.46,117.44,,109.88925810709522,131.74092052423288,2.8473831207759828
184,127.43,127.86,125.97,126.38,253527,125.45,120.89,117.61,,109.8600293837907,132.45185003487714,2.778998612149127
185,126.7,127.615,126.0,127.22,350079,125.86,121.34,117.82,,109.98800915144463,133.02692249151175,2.695855854138475
186,127.51,128.36,127.19,127.79,305291,126.37,121.81,118.0,,110.03730605408147,133.6457930638725,2.586866150271442
187,128.06,129.12,126.4024,126.87,217443,126.28,122.28,118.16,,110.45653682645234,134.2051943379971,2.5962042823949107
188,128.16,128.47,126.875,127.88,409401,126.58,122.89,118.35,,111.01379046891057,134.50785093016782,2.525046833652417
189,128.48,128.48,125.77,126.36,204976,126.82,123.59,118.52,,112.48726632555478,134.29041884263006,2.538257774105815
190,126.55,127.3,126.08,126.91,78170,127.07,124.29,118.74,,114.89980572753699,133.19244242695015,2.4440965045268284
191,126.79,126.93,125.685,126.32,122607,127.02,124.9,118.97,,116.76320775331867,132.43943621632062,2.358446754203484
192,127.15,128.58,126.42,127.81,110298,127.06,125.38,119.26,,118.68770254649459,131.81898846930193,2.3514148431889508
193,127.36,128.05,125.72,126.26,98417,127.05,125.72,119.49,,119.76157297494146,131.5488533309195,2.349885211532598
194,126.07,127.11,125.15,125.87,76735,126.9,126.06,119.77,,121.19526242312544,130.49235303972384,2.322036267851698
195,125.48,127.8,125.48,127.73,121048,126.89,126.31,120.08,,122.09638288155467,129.9994307263923,2.3218908201480044
196,127.99,128.99,127.64,128.55,82506,127.08,126.55,120.41,,122.42896939160106,129.83872954472838,2.2524700472802905
197,128.29,130.9,127.9381,129.09,132518,127.21,126.85,120.74,,122.93991524386054,130.3305169227922,2.3031436153316984
198,129.13,130.18,128.66,129.53,112044,127.56,126.94,121.08,,123.23400130994239,130.57792214021805,2.2472047856651494
199,129.47,131.09,129.02,130.47,194405,127.96,127.21,121.43,112.55,123.25572624392494,131.08800071216226,2.234547300974781
200,129.59,131.1,129.59,130.46,133337,128.42,127.52,121.76,112.69,123.75107254730575,131.31854956342252,2.1827939223337247
201,131.05,131.99,128.2,128.41,145900,128.49,127.7,122.07,112.82,124.11505630949094,131.78621098128002,2.297594356452746
202,128.56,130.65,128.31,130.34,119406,128.94,127.88,122.38,112.95,124.22627547180704,131.9642769213538,2.300623330991836
203,130.99,131.7399,130.2,131.11,214561,129.52,128.07,122.72,113.07,124.13328434420484,132.3647558262925,2.2462859502067065
204,131.29,133.69,131.0,133.13,244429,130.12,128.41,123.08,113.22,123.97154121250274,133.18498610197832,2.2779798109062277
205,134.0,134.67,133.64,134.55,333405,130.79,128.77,123.44,113.35,123.4121740271803,134.10764055785475,2.225266967270068
206,132.78,135.0,131.5,134.84,142041,131.43,129.12,123.8,113.52,123.3266136677223,134.97111895953654,2.3163193267507776
207,134.65,136.22,134.01,134.73,183236,132.0,129.52,124.13,113.68,123.04548980755376,136.01315140625016,2.3087250891257227
208,134.52,135.75,134.45,134.52,146110,132.45,129.85,124.47,113.85,122.81824190683851,136.7710090269967,2.236673297045315
209,135.0,136.37,134.65,135.7,72391,133.04,130.32,124.86,114.06,122.8745253809933,137.548079366337,2.209053775827792
210,136.19,137.14,135.055,135.67,74962,133.84,130.75,125.24,114.26,122.9795568883619,138.28630475609384,2.200192791840091
211,136.27,136.75,134.8387,135.24,61926,134.39,131.2,125.62,114.49,123.31720721601047,138.74490840833118,2.179557592422943
212,135.91,137.36,135.456,136.38,70210,134.97,131.63,126.05,114.69,123.59155962759661,139.34048245182154,2.1753034786784475
213,136.77,137.32,135.61,136.97,106212,135.4,132.16,126.44,114.89,124.11845768400855,139.75313390435684,2.1420675159157
214,135.92,137.97,133.68,134.05,281139,135.34,132.57,126.77,115.07,125.03547940439482,140.00762255190628,2.295491264778864
215,134.13,135.29,133.54,133.79,157556,135.23,132.88,127.08,115.28,126.03179160134778,139.79162306832336,2.256527603008945
216,134.22,137.97,134.22,137.72,224162,135.56,133.33,127.47,115.55,126.62487711538544,139.98899177106605,2.3939184885083065
217,137.52,140.0,136.505,139.7,138122,136.14,133.87,127.91,115.8,127.10904062229649,140.70288648771012,2.4725671679005705
218,139.57,140.62,137.755,139.05,100596,136.51,134.34,128.38,116.05,127.43524907803761,141.3102334111006,2.500598084479102
219,139.5,139.87,138.38,138.71,82840,136.85,134.75,128.91,116.26,127.76331247788072,141.6942397834085,2.42841250701631
220,138.81,139.23,137.09,138.07,314837,137.16,135.13,129.41,116.48,128.24248300357903,141.82616689950336,2.407811613658001
221,137.95,139.58,136.14,138.54,380068,137.4,135.64,129.9,116.67,129.24223678071712,142.00474727427883,2.4815393555395744
222,138.5,140.71,137.52,139.28,156386,137.66,136.09,130.32,116.87,130.365797515719,141.9954533292767,2.5321436872867475
223,139.04,141.33,138.37,138.83,128710,138.19,136.47,130.71,117.08,131.04943950195596,142.09793914727408,2.562704852480552
224,139.58,140.62,137.25,137.25,178198,138.57,136.68,131.07,117.29,131.76538423194634,142.22274771172042,2.6203687915890845
225,137.73,140.75,137.49,140.62,193695,138.89,136.98,131.43,117.52,131.96098910063188,142.39454506121152,2.6831995921898644
226,140.27,141.125,138.01,138.01,176250,138.71,137.14,131.72,117.71,132.7103504655896,142.5785382448296,2.7140424784620176
227,137.86,138.38,137.11,138.19,182594,138.61,137.31,132.02,117.89,132.96984057913124,142.52884679984268,2.610896587143301
228,138.16,139.92,137.85,139.57,156963,138.71,137.57,132.26,118.07,133.16034698214216,142.506179325544,2.5722611166330647
229,139.43,140.0,137.08,138.8,99822,138.79,137.72,132.53,118.23,133.36731507353548,142.50848559011268,2.597099608302131
230,137.53,137.53,133.15,133.25,140782,138.2,137.6,132.71,118.38,132.98620301511562,142.4850837432223,2.815163921994836
231,134.08,135.8,133.6064,135.03,121293,137.73,137.59,132.91,118.54,132.7665312481453,142.60089393668676,2.7962236418523485
232,134.43,135.36,131.82,132.95,183439,137.07,137.42,133.04,118.7,132.06641229869368,142.80476201221973,2.8493505245771824
233,134.13,134.39,131.805,134.06,153040,136.72,137.27,133.17,118.86,131.4424302377775,143.11945897792967,2.830468344250239
234,135.05,138.12,134.74,136.93,148301,136.31,137.42,133.38,119.03,131.58278451491336,143.12121579669582,2.918292033946651
235,136.16,137.3,135.385,136.55,103517,136.15,137.56,133.57,119.18,131.81490283486107,142.95876739085492,2.8466283172361773
236,136.12,138.4,135.0,137.9,208557,136.12,137.56,133.77,119.34,131.9112298756022,142.96324306106177,2.8861548660050222
237,139.46,140.73,138.715,140.56,129043,136.23,137.61,134.04,119.51,131.8635514033235,143.05283552946239,2.88214380414752
238,141.25,142.0,140.53,141.99,130728,136.58,137.75,134.33,119.69,131.6338136257602,143.28216043193748,2.781276389565554
239,141.96,142.89,141.22,142.15,143136,137.57,137.93,134.64,119.88,131.3657134834908,143.75879106094735,2.701899504596585
240,143.0,144.105,142.505,143.14,95024,138.47,138.18,134.97,120.04,130.97489720600504,144.50226669436478,2.6485495399825423
241,143.5,144.32,142.06,142.97,121109,139.58,138.4,135.3,120.19,130.8178207290354,145.18937950843775,2.62079600141236
242,142.38,144.76,142.38,144.5,83893,140.74,138.66,135.63,120.37,130.62260849448137,145.83083905590956,2.6035962870257623
243,144.61,144.72,142.9,143.67,140786,141.49,138.9,135.98,120.55,130.40456633848237,146.35603279536627,2.5476251236667786
244,143.75,144.175,142.445,143.11,164136,142.22,139.2,136.33,120.73,130.3361577970798,146.79556154461366,2.4892233291191532
245,142.62,143.18,141.3,141.3,153615,142.6,139.23,136.6,120.91,130.36593595257455,147.0457452774842,2.4457073770392133
246,138.57,138.57,131.61,132.25,425165,141.68,138.94,136.67,121.04,129.53066559890476,146.9540133790883,2.9631568501078407
247,131.25,131.37,127.5,129.25,297300,140.26,138.5,136.68,121.16,127.86376463493393,147.6585392113242,3.0907885036715665
248,127.82,128.72,126.78,128.33,372420,138.72,137.93,136.65,121.28,126.22561106989718,148.56231179697212,3.046446467695026
249,128.26,129.04,127.8,128.76,174301,137.13,137.43,136.62,121.38,125.04358134983364,149.08316536516486,2.9174145771453808
250,128.77,130.91,128.77,130.25,337684,135.71,137.28,136.61,121.5,124.4099408266742,149.32928756014203,2.8625992502064252
251,131.06,131.57,129.555,130.25,318159,134.13,137.04,136.65,121.63,123.89641313955025,149.491924456803,2.8020564466202513
252,130.78,132.0,129.875,130.62,251943,132.68,136.93,136.66,121.77,123.63284097835147,149.60115555862507,2.753695271861662
253,130.44,130.6646,129.47,130.35,289663,131.26,136.74,136.64,121.91,123.31526474677985,149.7791386810919,2.6423313238715442
254,130.37,132.18,129.5037,131.125,162486,130.13,136.45,136.6,122.06,122.7613699863373,149.7500685242238,2.6447576578807195
255,130.89,131.9,130.125,130.4,451773,129.93,136.14,136.52,122.19,122.28945314562813,149.74301425100336,2.58263211088924
256,131.14,134.14,130.41,134.09,151814,130.46,135.95,136.5,122.35,121.89513111732641,149.5971876395239,2.665301245825721
257,134.83,138.48,134.1,137.72,197644,131.51,135.81,136.56,122.51,121.79711258125394,149.3871438542037,2.7884940139810257
258,138.68,140.67,137.68,137.69,207520,132.5,135.6,136.63,122.68,121.8746866797593,149.22128239405833,2.8028872986966653
259,138.21,140.12,137.935,139.31,124384,133.51,135.45,136.7,122.85,122.0043368217641,148.8600738928219,2.776252491646904
260,139.19,140.415,138.74,139.4,143067,134.52,135.27,136.77,123.0,122.24359398497586,148.31174706916337,2.69759159938641
261,140.0,141.24,139.2648,140.95,155792,135.67,135.17,136.89,123.14,122.4419798138586,147.80592292337118,2.6459921994302382
262,141.78,143.03,141.015,142.12,327875,136.98,135.05,137.0,123.29,122.57155170485667,147.47656699046712,2.605564185185222
263,141.71,142.1,139.3316,140.6,224436,138.03,134.89,137.07,123.44,122.895456251099,146.98662572561295,2.6186238862434204
264,139.91,141.74,139.376,141.19,136735,139.23,134.8,137.22,123.59,123.19111539864294,146.53623249890686,2.600436465797462
265,141.34,142.47,140.94,141.52,143396,140.06,134.81,137.37,123.73,123.22926535991252,146.40371801401093,2.5239767182405006
266,142.06,142.33,139.04,139.31,270268,140.23,135.16,137.4,123.86,123.35218746561135,146.91513088120533,2.5786926669376093
267,138.97,141.86,138.26,141.59,206875,140.67,135.78,137.44,124.01,124.16309475498578,147.4599687316029,2.651643190727782
268,140.53,142.56,140.16,140.84,242331,140.84,136.4,137.48,124.15,125.1858044760928,147.73889092319828,2.633668677104369
269,141.59,144.33,141.16,141.88,263235,141.11,137.06,137.54,124.29,126.11968249526774,148.13038035110583,2.6948352001683435
270,141.4,143.23,140.45,142.55,199934,141.29,137.68,137.63,124.44,127.07327911434845,148.35229940346528,2.7009184001563193
271,143.0,144.82,142.19,144.81,225101,141.59,138.4,137.76,124.6,127.92718010317031,148.72023198726671,2.6958528001451536
272,144.24,145.9,143.39,144.77,217175,142.05,139.11,137.87,124.81,128.81240949762565,149.12079906355115,2.682577600134787
273,144.33,144.41,142.6,142.995,204007,142.25,139.74,137.95,124.99,130.09321186048172,148.76830642563758,2.645964914410875
274,143.03,143.47,141.23,141.71,303310,142.27,140.27,138.04,125.17,131.7121203939031,148.24512855432775,2.6169674205243845
275,142.77,143.98,141.38,143.88,192942,142.78,140.95,138.1,125.35,133.50582442820104,147.2207250468958,2.6157554619154997
276,144.95,144.95,143.34,144.51,155880,143.1,141.47,138.23,125.54,135.66971607532403,146.3315314468388,2.5439157860643915
277,144.04,145.99,143.32,145.99,148765,143.68,141.88,138.39,125.74,136.9024078412531,146.46223225389895,2.5529218013455073
278,145.28,145.5,143.38,143.61,157178,143.87,142.18,138.47,125.92,137.23810707140683,146.69890973237816,2.5569988155351147
279,143.8,143.96,142.19,143.76,117661,144.0,142.4,138.57,126.1,137.67486708556083,146.5797569852533,2.5007846144254646
280,144.42,145.3,143.28,145.22,107668,144.05,142.69,138.81,126.29,137.94228837019213,146.59518108406021,2.466442856252218
=======
0,103.4,104.76,101.95,102.38,515351,,,,,,,2.8100000000000023
1,99.73,102.205,99.315,101.17,594153,,,,,,,2.828214285714288
2,101.62,103.76,100.81,103.64,270090,,,,,,,2.8369132653061246
3,103.79,105.72,102.2,102.75,276635,,,,,,,2.885705174927115
4,105.39,107.63,104.44,107.36,199266,,,,,,,3.028154805289464
5,105.34,105.8,102.65,103.98,236666,,,,,,,3.1482866049116445
6,101.61,107.41,101.33,107.28,493180,,,,,,,3.3576947045608128
7,102.74,105.0,99.478,101.46,529389,,,,,,,3.67514508280647
8,103.6,103.99,99.385,103.91,415301,103.77,,,,,,3.7415632911774357
9,101.67,101.67,97.92,99.05,639687,103.4,,,,,,3.90216591323619
10,92.48,96.4,87.5,94.4,788223,102.65,,,,,,4.448439776576462
11,98.08,99.44,91.12,96.42,476058,101.85,,,,,,4.724979792535286
12,87.4,94.48,87.4,87.87,573698,100.19,,,,,,5.0317669502113365
13,89.95,96.95,89.48,96.45,533056,98.98,,,,,,5.32092645376767
14,91.69,96.98,90.34,96.74,614591,98.18,,,,,,5.4151459927842645
15,96.49,101.22,93.59,98.64,299073,97.22,,,,,,5.573349850442531
16,98.81,99.9825,89.13,92.4,709083,96.21,,,,,,5.950432003982351
17,92.06,93.24,79.84,83.86,642938,93.98,,,,,,6.482544003697896
18,87.27,88.32,82.69,88.06,495291,92.76,,,,,,6.42164800343376
19,89.0,93.66,86.22,90.17,524600,92.29,97.9,,,79.43304256574078,111.16309668530971,6.49438743175992
20,90.85,97.34,90.216,96.2,355720,92.27,97.59,,,79.18782195508805,110.67433515621592,6.5426454723484975
21,94.54,95.84,92.1,93.89,435571,92.93,97.23,,,79.05147456965176,110.46638487646787,6.368170795752177
22,94.97,100.96,94.37,100.48,387313,93.38,97.07,,,79.14768986172162,110.17758934261748,6.418301453198449
23,100.52,102.75,97.44,99.54,465866,93.69,96.91,,,79.413220364073,109.74700730110234,6.339137063684275
24,97.71,98.675,95.44,96.32,250269,93.44,96.36,,,80.04201867757743,108.5537411147092,6.179198701992542
25,95.81,97.14,94.12,96.14,391636,93.85,95.96,,,80.555995064277,107.59429647158655,5.953541651850217
26,94.88,97.42,93.36,94.2,284999,95.0,95.31,,,81.01215333903716,106.0841948326198,5.818288676718058
27,97.07,101.18,97.07,100.76,451661,96.41,95.28,,,81.22276918603156,105.36238245446569,5.901268056952484
28,103.55,103.55,99.22,101.12,290436,97.63,95.14,,,81.2413202998864,105.26697303161812,5.789034624313021
29,101.63,105.29,100.64,104.205,283995,98.52,95.39,,,80.94879528978335,105.99659079944759,5.707675008290662
30,105.04,108.03,104.23,107.43,353358,100.02,96.04,,,80.56704592910066,107.69484368785483,5.573198221984187
31,106.99,107.43,102.3,102.33,182696,100.23,96.34,,,80.35000151085505,108.91269755040929,5.541541206128175
32,104.56,105.3658,103.36,103.76,190351,100.7,97.13,,,80.62046838597571,109.60164400669372,5.3625596914047335
33,102.28,104.19,100.61,100.82,386772,101.2,97.35,,,80.9982292487374,110.08784936668347,5.235233999161538
34,103.03,103.03,99.68,101.85,253933,101.83,97.61,,,81.3971525647533,110.38101593036589,5.100574427792857
35,103.86,105.02,102.4,102.85,216948,102.79,97.82,,,81.42906544268973,110.7889126826887,4.962676254379081
36,101.86,107.94,101.13,106.94,774451,103.48,98.55,,,82.1010162936737,111.71334784118845,5.0946279504948615
37,105.85,106.99,104.115,106.1,409805,104.03,99.66,,,85.08715213382477,112.11893687133934,4.936083096888086
38,106.99,107.035,104.12,106.54,328694,104.29,100.58,,,87.85175727713838,111.3174775678273,4.791720018538936
39,106.62,107.32,104.95,105.02,308738,104.02,101.32,,,90.01091036773772,111.22341897764016,4.618740017214726
40,105.41,105.41,103.09,104.37,263752,104.25,101.73,,,91.50888478245325,111.20661428481216,4.454544301699388
41,109.33,114.1,106.88,112.56,415411,105.23,102.67,,,92.4664332373643,112.59796659822302,4.831362565863717
42,112.6,114.66,110.99,111.18,246823,106.38,103.2,,,92.5266965871437,114.29077725252444,4.748408096873452
43,112.56,113.63,109.82,110.11,202200,107.3,103.73,,,92.55007581119139,115.50780986243423,4.6813789470967775
44,108.99,110.07,106.34,107.1,432210,107.77,104.27,,,93.41011660846706,115.68373297309604,4.616280450875579
45,110.56,110.56,104.71,106.14,472341,107.68,104.77,,,94.7889298501869,115.50071994021701,4.704403275813039
46,105.53,107.325,105.08,106.82,286955,107.76,105.4,,,96.6986829639529,114.74262248913622,4.5287316132549655
47,106.78,107.63,105.4,105.53,196363,107.65,105.64,,,97.79243300445208,114.45433693307918,4.364536498022468
48,106.77,107.05,104.76,104.88,209940,107.63,105.83,,,98.48107113414623,114.347761190729,4.216355319592291
49,105.52,106.89,105.14,105.38,212534,107.74,105.89,101.17,,98.95066294153584,114.33011930553668,4.0587585110499855
50,106.98,107.985,106.56,107.67,236238,107.2,105.9,101.28,,98.98916309257544,114.32783223219505,3.954918617403558
51,106.66,107.505,106.08,106.31,225764,106.66,106.1,101.38,,99.24646971103537,114.33029851408313,3.78599585901759
52,106.43,106.43,103.85,103.85,160803,105.96,106.1,101.38,,99.29286342737433,114.3084190794743,3.6998532976591916
53,103.39,103.39,101.645,102.42,212336,105.44,106.18,101.38,,99.49274839073246,114.38099340816433,3.5930780621121063
54,101.01,102.62,99.11,102.44,224926,105.03,106.21,101.28,,99.34373236878652,114.42994250635117,3.587143914818385
55,101.47,101.7,100.045,101.56,274689,104.45,106.15,101.23,,98.914842438595,114.73782231484755,3.5019907780456427
56,104.07,105.15,102.95,104.17,222330,104.3,106.01,101.17,,99.18756290887345,114.69912567816519,3.5082771510423827
57,103.79,105.7475,103.16,103.62,184618,104.16,105.88,101.21,,99.09969100113088,114.68422013077638,3.4425073545393556
58,104.45,105.515,104.08,104.31,106886,104.04,105.77,101.22,,99.09674499713019,114.66666810490031,3.3319711149294013
59,104.44,105.71,104.44,105.13,135763,103.76,105.78,101.34,,99.0707829812179,114.63254817952414,3.1939731781487293
60,104.97,105.25,103.71,104.97,117911,103.61,105.81,101.55,,99.13248485846444,114.63448830508173,3.075832236852392
61,107.34,110.19,106.78,109.59,289223,104.25,105.66,101.82,,99.13535928258658,113.86694436768343,3.228987077077221
62,111.07,112.65,110.35,112.57,240395,105.37,105.73,102.31,,99.24855790276716,113.33987722663834,3.216916571571706
63,113.33,113.33,110.94,111.59,195016,106.39,105.8,102.61,,99.06538402396926,113.25987177228687,3.157851102173727
64,111.1,111.53,109.71,111.44,132519,107.49,106.02,102.91,,98.84987990155527,113.51233651024883,3.066576023447033
65,111.28,111.88,110.6,111.43,216057,108.29,106.28,103.16,,98.63829158432684,113.75135836344313,2.938963450343674
66,111.75,112.47,110.94,112.07,181986,109.23,106.55,103.56,,98.45303640027868,114.41318491098735,2.8383232038905546
67,112.7,114.1,112.7,113.45,155626,110.25,106.94,104.15,,98.12197056339114,115.33822606728096,2.7805858321840864
68,113.5,113.5,111.015,112.21,138958,111.04,107.31,104.63,,98.12612576132142,116.05999204371864,2.7594725584566513
69,113.8,114.28,112.905,113.58,175360,111.99,107.72,105.1,,97.99622873884768,116.85668046168698,2.7102245185668914
70,112.82,114.0,112.29,113.54,194349,112.43,108.01,105.45,,97.91082073466299,117.50015938225448,2.6387799100978278
71,112.78,113.45,111.91,112.475,247902,112.42,108.32,105.82,,97.93434526833678,118.00911065833571,2.566724202233698
72,113.0,113.0,110.82,111.67,310216,112.43,108.71,106.04,,98.2821690611658,118.40075491990815,2.5391010449312916
73,110.0,110.61,104.21,104.32,276051,111.64,108.81,106.14,,98.68631446170997,118.29790406061113,2.8905938274362
74,106.69,107.53,104.74,106.02,58088,111.04,108.99,106.33,,99.77949050166407,117.9245546858744,2.913408554047901
75,103.44,106.54,103.065,105.41,195172,110.3,109.18,106.52,,100.45000849413124,117.33242011126252,2.9535222287587657
76,108.3,109.09,106.86,107.39,188571,109.62,109.34,106.78,,101.00625181363135,117.12744595444354,3.00541349813314
77,108.19,108.65,106.37,106.94,152749,109.04,109.51,106.9,,101.50791773569469,116.95108637434863,2.9535982482664873
78,106.28,107.97,105.97,107.1,136329,108.32,109.64,107.02,,101.80354729307331,116.73745136135898,2.885484087676024
79,107.21,107.99,106.1,107.63,205760,107.66,109.77,107.09,,102.05995237555634,116.52011405305205,2.814378081413451
80,106.94,107.67,105.5,107.55,177875,107.11,109.9,107.09,,102.38650572555787,116.21705386845301,2.768351075598205
81,108.46,108.46,106.92,107.49,177306,106.65,109.79,107.2,,102.40212726700553,116.24518286928615,2.6806117130554754
82,106.58,107.52,105.85,105.93,393235,106.83,109.46,107.24,,102.10480005641638,116.13349973467098,2.6084251621229413
83,105.41,107.63,103.78,107.58,230861,107.0,109.26,107.38,,101.52987071074945,115.86080483010232,2.6971090791141594
84,107.12,108.69,106.17,107.7,316312,107.26,109.07,107.49,,101.3433394712974,115.74199427359854,2.684458430606005
85,108.24,110.19,107.89,109.28,141427,107.47,108.97,107.62,,101.32810606577968,115.60372153532153,2.670568542705576
86,109.13,112.28,109.13,111.84,302554,108.01,108.96,107.72,,101.37326460940177,115.57791705523005,2.7048136467980353
87,111.91,112.665,110.95,112.52,196549,108.61,108.91,107.85,,101.53237965741673,115.32126965449741,2.634112672026747
88,113.44,115.01,113.44,114.97,213218,109.43,109.05,108.02,,101.28386981667953,115.64189140983108,2.623818909739123
89,115.99,116.66,114.18,115.25,212956,110.28,109.13,108.22,,101.1122624995202,116.22143938561857,2.6135461304720424
90,114.64,116.0,114.18,115.09,280935,111.13,109.21,108.44,,100.8942823479349,116.64364782932701,2.556864264009753
91,114.79,115.75,112.59,112.93,160006,111.91,109.23,108.44,,100.84034950687092,117.07255665962397,2.5999453880090564
92,113.16,114.14,111.405,113.83,272403,112.6,109.34,108.5,,100.81492381343485,117.23978787987282,2.60959214600841
93,114.17,115.17,112.395,115.06,190934,113.42,109.88,108.59,,101.1922225227334,117.77973304482082,2.6214069927220955
94,114.96,116.265,113.27,113.43,182870,113.88,110.25,108.72,,101.51507893312233,118.44878612282697,2.6480922075276605
95,113.76,116.5,113.69,116.34,156651,114.38,110.79,108.93,,102.26098920350053,118.96242640346775,2.6782284784185415
96,117.44,118.29,116.54,117.98,269467,114.99,111.32,109.15,,102.15673619038587,119.874660279587,2.6262121585315032
97,118.04,118.49,116.8,117.21,215895,115.24,111.84,109.38,,102.25740587600413,120.66982805276376,2.5593398614935388
98,118.0,119.71,117.34,119.46,198097,115.7,112.45,109.67,,102.52539921761662,121.52399179023314,2.555101299958286
99,119.4,119.75,118.27,119.27,159832,116.17,113.04,109.95,,102.84101778786562,122.20783364833275,2.4783083499612655
100,119.58,119.87,117.67,118.2,341875,116.75,113.57,110.16,,103.51884347691856,122.70127773552885,2.4584291821068898
101,118.25,118.98,117.41,118.475,347333,117.27,114.12,110.41,,104.10006178729553,122.95567239500987,2.394969954813541
102,118.39,119.23,118.09,118.39,249656,117.64,114.74,110.7,,105.01389198245832,122.93209630994566,2.305329243755431
103,119.34,119.785,118.38,118.84,205608,118.24,115.3,111.02,,106.75430320712843,122.74713006917764,2.2410200120586143
104,118.83,120.45,118.5,119.85,254417,118.63,115.91,111.37,,108.11305759669534,122.57798858187563,2.220232868340142
105,119.81,119.81,117.78,118.02,302215,118.64,116.35,111.7,,109.29069078128254,122.31545232938629,2.2095019491729886
106,118.72,119.41,117.33,118.75,421108,118.81,116.69,111.99,,110.35414990368292,122.18301929569441,2.2002518099463466
107,117.75,118.91,116.7,117.85,635354,118.63,116.96,112.28,,111.09064025280905,121.89221028951827,2.200948109235893
108,115.0,117.9,111.22,115.1,1068435,118.16,116.97,112.49,,110.65221844931108,121.7963276673347,2.5208803871476158
109,116.85,119.68,114.85,118.79,488332,118.23,117.14,112.77,,110.71913292373188,121.95428581844463,2.685817502351359
110,118.95,120.18,118.22,118.7,402336,118.25,117.32,113.04,,110.85717463506725,122.11153375920345,2.633973395040548
111,119.56,120.67,118.22,118.36,278050,118.25,117.6,113.22,,111.29511803918012,122.26492413009797,2.620832438251938
112,118.82,120.11,116.68,117.66,443422,118.12,117.79,113.32,,112.10845928632703,121.91885585066532,2.678630121233942
113,117.07,119.37,116.78,119.32,343779,118.06,118.0,113.47,,112.77171228455222,121.53356302411301,2.6722993982886605
114,119.58,119.58,116.9,117.0,331800,117.95,118.18,113.58,,113.29887212613218,121.26811205994262,2.6728494412680415
115,118.02,119.35,116.53,116.66,270787,117.72,118.19,113.69,,113.76172387416602,120.87830441368925,2.683360195463181
116,116.92,118.57,116.75,118.1,305677,117.74,118.2,113.81,,113.77727309865247,120.84729972177387,2.628120181501525
117,119.14,119.92,118.01,118.24,259074,118.09,118.25,113.91,,113.81011030656464,120.84561454032071,2.5768258828228445
118,117.91,118.64,116.77,117.87,283443,117.99,118.17,114.02,,113.78116098710295,120.85379733531641,2.5263383197640703
119,118.7,119.37,117.32,117.75,225856,117.88,118.1,114.1,,113.78080923555216,120.83115075325155,2.4923141540666376
120,117.06,118.125,116.6,117.47,247441,117.79,118.06,114.18,,113.73824273015633,120.86143536305843,2.423220285919021
121,117.12,118.35,116.4,117.8,280336,117.8,118.03,114.29,,113.68630400859335,120.8940723256797,2.3894188369248046
122,118.92,119.76,118.53,119.18,367122,117.79,118.07,114.44,,113.66829024849162,120.92869806011713,2.358746062858748
123,119.54,119.54,117.93,118.13,179243,117.91,118.03,114.71,,113.6821613732182,120.90727378773163,2.30526420122598
124,117.99,119.0,117.56,118.59,172110,118.13,117.97,114.97,,113.70681479146182,120.75731592455634,2.243459615424124
125,118.63,120.62,118.5,120.05,373349,118.34,118.07,115.26,,113.68232499349331,120.89845193558858,2.2346410714652585
126,119.7,119.7,118.0,118.2,531681,118.34,118.04,115.47,,113.68265361932147,120.92063501344585,2.2214524235034543
127,118.58,119.16,117.78,118.3,229582,118.39,118.06,115.7,,113.71640638298335,120.921623347928,2.161348678967493
128,117.94,119.64,117.94,119.48,210542,118.58,118.28,115.95,,115.47618760356208,120.84471293204984,2.1283952018983867
129,119.75,122.44,118.97,122.15,234496,119.1,118.45,116.24,,115.93928715624189,121.52050593160293,2.224224116048502
130,122.28,122.28,118.5,119.17,400403,119.25,118.47,116.47,,115.92249475645296,121.95936394348787,2.3353509649021804
131,120.04,120.3,116.49,118.71,347666,119.2,118.49,116.7,,115.80570269539477,121.91353397209485,2.440683038837739
132,118.13,118.13,116.04,116.07,270480,118.97,118.41,116.9,,115.68801906267213,121.91033558717571,2.4570628217779
133,116.64,118.63,116.64,117.89,226192,118.89,118.34,117.11,,115.669088059492,121.9115796056631,2.464415477365193
134,118.31,118.91,116.71,117.19,437229,118.57,118.35,117.3,,115.64588060696529,121.8955838411231,2.445528657553394
135,117.88,118.71,117.13,118.38,172654,118.59,118.44,117.48,,115.71845198590056,121.89043515439332,2.3837051820138657
136,119.37,120.06,118.47,119.0,205317,118.67,118.48,117.62,,115.77537166418915,121.9370726029902,2.333440526155733
137,119.44,119.8,118.12,118.3,99643,118.54,118.48,117.74,,115.77359316248923,121.9278897127874,2.2867662028588946
138,119.4813,119.4813,117.57,117.77,128827,118.05,118.48,117.79,,115.84964762017968,121.93086780117201,2.2599471883689746
139,116.5,117.24,115.08,115.95,242250,117.7,118.39,117.81,,115.40957336215064,122.05221538862654,2.2906652463426194
140,116.58,116.75,114.23,115.07,258112,117.29,118.27,117.81,,114.85467113829337,122.2028355791929,2.307046300175289
141,113.6,114.04,111.82,113.45,124041,117.0,118.05,117.82,,113.62019465949363,122.86773249941655,2.3744001358770546
142,113.56,114.67,113.56,114.34,159938,116.61,117.81,117.83,,113.10216154733939,123.12449425806373,2.291942983314408
143,113.68,114.53,111.71,112.12,124889,116.04,117.51,117.77,,112.18488439571512,123.30567957676553,2.3296613416490937
144,111.9,113.17,111.16,112.27,184050,115.36,117.19,117.74,,111.27915759905382,123.63253050612002,2.306828388674159
145,111.46,112.58,111.46,112.08,213876,114.59,116.79,117.66,,110.61745827148675,123.72946376383312,2.222054932340291
146,113.17,114.22,112.04,112.48,185780,113.95,116.51,117.55,,110.15479079934467,123.63699458754571,2.2190510086016983
147,112.06,113.35,111.745,112.6,398337,113.37,116.22,117.46,,109.70091256032329,123.6174191369978,2.175190222273005
148,113.27,113.935,112.5,113.14,225601,113.06,115.91,117.33,,109.44678347148091,123.43187988860518,2.122319492110648
149,113.45,114.97,113.14,113.71,231711,112.91,115.48,117.22,,109.42811768098258,122.60823685494971,2.101439528388459
150,112.31,114.175,112.31,112.91,196092,112.85,115.17,117.11,,109.33387810428482,121.69977400484032,2.084550990646426
151,113.36,114.93,113.21,114.6,192596,112.88,114.97,117.04,,109.24349161106608,121.1322882797441,2.0799402056002534
152,115.01,115.9,113.92,114.51,264793,113.14,114.89,116.96,,109.20965203735179,120.9304740923238,2.07280161948595
153,115.09,116.17,114.5,114.98,142327,113.45,114.74,116.88,,109.24182030677741,120.65168596519128,2.044030075236954
154,115.8,116.79,115.52,116.52,222482,113.94,114.71,116.81,,109.29511206064566,120.35253393715941,2.0273136412914576
155,118.12,118.39,116.185,116.85,233329,114.42,114.63,116.79,,109.36541012670847,120.295382817908,2.0400055240563533
156,117.05,118.825,116.7,118.06,206674,115.03,114.59,116.78,,109.59244361095293,120.01548736587723,2.046076558052328
157,117.7,118.91,117.25,117.67,236605,115.53,114.55,116.77,,109.72048068451562,119.80823694083645,2.0184996610485904
158,117.5,118.03,116.04,116.45,133934,115.84,114.49,116.8,,109.89470858916877,119.49804219576524,2.0164639709736907
159,114.72,116.59,114.22,116.34,198125,116.22,114.51,116.75,,109.89797406193803,119.41803168561319,2.0417165444755705
160,116.71,117.23,116.19,116.27,95791,116.41,114.57,116.7,,109.83493846284628,119.47922142885133,1.970165362727316
161,116.64,116.64,114.58,115.19,129430,116.48,114.65,116.64,,110.06705785394792,119.56765695802035,1.9765821225325078
162,116.05,117.56,115.22,117.0,295091,116.71,114.79,116.63,,110.10907871703024,119.76566889740111,2.0046833994944717
163,117.27,118.4,117.27,117.75,160339,116.84,115.07,116.6,,110.27647239049335,120.06647969475192,1.96149172810201
164,117.89,118.475,116.745,118.31,203380,117.0,115.37,116.62,,110.68941742485902,120.2339547748116,1.9449566046661513
165,118.75,118.97,117.48,118.35,134930,117.04,115.68,116.66,,111.06281935185568,120.31037304866176,1.9124597043328544
166,117.35,117.49,115.93,117.39,169533,117.01,115.93,116.64,,111.46945691191716,120.31165934690189,1.9487125825947924
167,117.17,117.19,115.61,115.65,187119,116.92,116.08,116.59,,112.01129595370537,120.11212258836522,1.9366616838380217
168,114.11,114.61,112.25,112.34,255596,116.47,116.04,116.48,,111.95255389899125,120.01986047834835,2.0411858492781634
169,112.3,113.1,110.3445,112.9,366544,116.1,116.0,116.38,,111.2478457343588,120.28818674037153,2.092208288615437
170,116.25,116.76,113.54,114.14,510820,115.98,116.06,116.32,,111.45981842062892,120.16299497338402,2.218479125142906
171,115.17,118.29,114.67,118.19,360554,116.11,116.24,116.32,,111.63731100119773,120.21011106217334,2.356444901918413
172,118.5,121.46,118.329,119.57,378381,116.32,116.5,116.33,,111.65404985618565,120.96770059007262,2.421698837495669
173,120.0,120.02,118.1,119.05,241867,116.4,116.7,116.35,,111.68030139418782,121.27604343966755,2.3858632062459786
174,120.61,123.1,120.43,122.81,297596,116.89,117.01,116.43,,111.3741732932922,122.29922970736868,2.5047301200855516
175,123.59,124.61,122.47,123.6,332389,117.58,117.35,116.5,,110.7975658775544,123.5302803966089,2.4786779686508695
176,127.62,128.86,122.11,123.18,556380,118.42,117.61,116.6,,110.44637799493667,125.85205022620046,2.783772399461523
177,123.39,128.8,122.9466,127.63,511397,120.12,118.11,116.79,,110.0644540755787,127.64487568295344,3.0030315137857
178,127.75,127.75,124.365,125.2,320980,121.49,118.54,116.9,,109.66935090604866,128.91351938508316,3.0303149770867224
179,124.24,125.21,122.59,124.18,139680,122.6,118.93,116.95,,109.84284947155804,129.5198147656122,3.0010067644376703
180,124.1,126.0,124.1,124.73,115844,123.33,119.36,117.06,,109.73895062904252,130.1878208641807,2.9223634241206944
181,126.28,127.0,125.57,126.74,321922,124.12,119.94,117.22,,109.78396521120877,130.90892167884226,2.8757660366835016
182,126.26,128.1,125.7,127.45,270075,125.06,120.46,117.44,,109.88925810709536,131.74664953961968,2.8417827483489653
183,127.43,127.86,125.97,126.38,253527,125.45,120.89,117.61,,109.86002938379085,132.4518500348771,2.7737982663240395
184,126.7,127.615,126.0,127.22,350079,125.86,121.34,117.82,,109.98800915144477,133.0269224915117,2.6910269615866076
185,127.51,128.36,127.19,127.79,305291,126.37,121.81,118.0,,110.03730605408161,133.64579306387247,2.5823821786161365
186,128.06,129.12,126.4024,126.87,217443,126.28,122.28,118.16,,110.45653682645253,134.20519433799709,2.5920405944292697
187,128.16,128.47,126.875,127.88,409401,126.58,122.89,118.35,,111.01379046891078,134.5078509301678,2.5211805519700357
188,128.48,128.48,125.77,126.36,204976,126.82,123.59,118.52,,112.48726632555503,134.29041884263003,2.534667655400747
189,126.55,127.3,126.08,126.91,78170,127.07,124.29,118.74,,114.89980572753734,133.19244242695012,2.4407628228721223
190,126.79,126.93,125.685,126.32,122607,127.02,124.9,118.97,,116.76320775331912,132.43943621632056,2.355351192666971
191,127.15,128.58,126.42,127.81,110298,127.06,125.38,119.26,,118.6877025464952,131.81898846930187,2.3485403931907602
192,127.36,128.05,125.72,126.26,98417,127.05,125.72,119.49,,119.7615729749422,131.54885333091943,2.347216079391421
193,126.07,127.11,125.15,125.87,76735,126.9,126.06,119.77,,121.19526242312644,130.49235303972372,2.3195577880063194
194,125.48,127.8,125.48,127.73,121048,126.89,126.31,120.08,,122.0963828815559,129.99943072639215,2.319589374577296
195,127.99,128.99,127.64,128.55,82506,127.08,126.55,120.41,,122.42896939160238,129.8387295447282,2.2503329906789182
196,128.29,130.9,127.9381,129.09,132518,127.21,126.85,120.74,,122.93991524386195,130.3305169227921,2.301159205630424
197,129.13,130.18,128.66,129.53,112044,127.56,126.94,121.08,,123.23400130994386,130.57792214021794,2.245362119513966
198,129.47,131.09,129.02,130.47,194405,127.96,127.21,121.43,,123.25572624392632,131.08800071216214,2.2328362538343964
199,129.59,131.1,129.59,130.46,133337,128.42,127.52,121.76,112.53,123.75107254730726,131.3185495634224,2.1812050928462248
200,131.05,131.99,128.2,128.41,145900,128.49,127.71,122.07,112.66,124.11505630949257,131.7862109812799,2.296119014785782
201,128.56,130.65,128.31,130.34,119406,128.94,127.88,122.38,112.8,124.22627547180866,131.9642769213537,2.299253370872512
202,130.99,131.7399,130.2,131.11,214561,129.52,128.07,122.72,112.94,124.13328434420632,132.3647558262924,2.24501384438162
203,131.29,133.69,131.0,133.13,244429,130.12,128.41,123.08,113.09,123.97154121250406,133.18498610197824,2.2767985697829327
204,134.0,134.67,133.64,134.55,333405,130.79,128.77,123.44,113.23,123.41217402718135,134.1076405578547,2.2241701005127226
205,132.78,135.0,131.5,134.84,142041,131.43,129.12,123.8,113.38,123.32661366772331,134.97111895953648,2.3153008076189567
206,134.65,136.22,134.01,134.73,183236,132.0,129.52,124.13,113.52,123.04548980755467,136.0131514062501,2.3077793213604605
207,134.52,135.75,134.45,134.52,146110,132.45,129.85,124.47,113.68,122.81824190683933,136.77100902699664,2.235795084120429
208,135.0,136.37,134.65,135.7,72391,133.04,130.32,124.86,113.84,122.87452538099411,137.54807936633696,2.2082382923975405
209,136.19,137.14,135.055,135.67,74962,133.84,130.75,125.24,114.03,122.9795568883627,138.2863047560938,2.1994355572262863
210,136.27,136.75,134.8387,135.24,61926,134.39,131.2,125.62,114.23,123.31720721601131,138.74490840833113,2.1788544459958383
211,135.91,137.36,135.456,136.38,70210,134.97,131.63,126.05,114.43,123.59155962759742,139.34048245182152,2.174650556996136
212,136.77,137.32,135.61,136.97,106212,135.4,132.16,126.44,114.68,124.11845768400941,139.7531339043568,2.1414612314964105
213,135.92,137.97,133.68,134.05,281139,135.34,132.57,126.77,114.86,125.03547940439579,140.00762255190625,2.2949282863895233
214,134.13,135.29,133.54,133.79,157556,135.23,132.88,127.08,115.05,126.03179160134889,139.7916230683233,2.2560048373617003
215,134.22,137.97,134.22,137.72,224162,135.56,133.33,127.47,115.24,126.6248771153866,139.988991771066,2.3934330632644363
216,137.52,140.0,136.505,139.7,138122,136.14,133.87,127.91,115.48,127.10904062229774,140.70288648771006,2.4721164158884052
217,139.57,140.62,137.755,139.05,100596,136.51,134.34,128.38,115.76,127.43524907803882,141.31023341110054,2.5001795290392343
218,139.5,139.87,138.38,138.71,82840,136.85,134.75,128.91,116.01,127.76331247788194,141.69423978340845,2.4280238483935754
219,138.81,139.23,137.09,138.07,314837,137.16,135.13,129.41,116.25,128.24248300358028,141.8261668995033,2.407450716365462
220,137.95,139.58,136.14,138.54,380068,137.4,135.64,129.9,116.46,129.24223678071854,142.00474727427877,2.4812042366250737
221,138.5,140.71,137.52,139.28,156386,137.66,136.09,130.32,116.69,130.36579751572071,141.99545332927664,2.5318325054375683
222,139.04,141.33,138.37,138.83,128710,138.19,136.47,130.71,116.88,131.0494395019578,142.097939147274,2.5624158979063143
223,139.58,140.62,137.25,137.25,178198,138.57,136.68,131.07,117.07,131.76538423194842,142.22274771172033,2.620100476627292
224,137.73,140.75,137.49,140.62,193695,138.89,136.98,131.43,117.29,131.96098910063398,142.39454506121146,2.6829504425824857
225,140.27,141.125,138.01,138.01,176250,138.71,137.14,131.72,117.5,132.710350465592,142.5785382448295,2.713811125255166
226,137.86,138.38,137.11,138.19,182594,138.61,137.31,132.02,117.72,132.96984057913372,142.52884679984263,2.61068175916551
227,138.16,139.92,137.85,139.57,156963,138.71,137.57,132.26,117.91,133.1603469821447,142.5061793255439,2.57206163351083
228,139.43,140.0,137.08,138.8,99822,138.79,137.72,132.53,118.1,133.3673150735381,142.5084855901126,2.5969143739743417
229,137.53,137.53,133.15,133.25,140782,138.2,137.6,132.71,118.25,132.98620301511798,142.48508374322222,2.8149919186904606
230,134.08,135.8,133.6064,135.03,121293,137.73,137.59,132.91,118.38,132.76653124814752,142.60089393668667,2.7960639244982857
231,134.43,135.36,131.82,132.95,183439,137.07,137.42,133.04,118.54,132.06641229869567,142.80476201221964,2.8492022156055525
232,134.13,134.39,131.805,134.06,153040,136.72,137.27,133.17,118.69,131.4424302377793,143.11945897792958,2.830330628776583
233,135.05,138.12,134.74,136.93,148301,136.31,137.42,133.38,118.87,131.5827845149152,143.12121579669574,2.9181641552925415
234,136.16,137.3,135.385,136.55,103517,136.15,137.56,133.57,119.04,131.81490283486298,142.95876739085483,2.846509572771647
235,136.12,138.4,135.0,137.9,208557,136.12,137.56,133.77,119.22,131.9112298756041,142.9632430610617,2.8860446032879588
236,139.46,140.73,138.715,140.56,129043,136.23,137.61,134.04,119.39,131.86355140332532,143.05283552946233,2.882041417338818
237,141.25,142.0,140.53,141.99,130728,136.58,137.75,134.33,119.57,131.63381362576192,143.28216043193743,2.781181316100331
238,141.96,142.89,141.22,142.15,143136,137.57,137.93,134.64,119.74,131.36571348349236,143.7587910609473,2.7018112220931636
239,143.0,144.105,142.505,143.14,95024,138.47,138.18,134.97,119.93,130.97489720600643,144.50226669436472,2.6484675633722223
240,143.5,144.32,142.06,142.97,121109,139.58,138.4,135.3,120.13,130.8178207290367,145.1893795084377,2.6207198802742058
241,142.38,144.76,142.38,144.5,83893,140.74,138.66,135.63,120.29,130.62260849448256,145.8308390559095,2.603525603111762
242,144.61,144.72,142.9,143.67,140786,141.49,138.9,135.98,120.45,130.40456633848348,146.35603279536622,2.547559488603779
243,143.75,144.175,142.445,143.11,164136,142.22,139.2,136.33,120.61,130.3361577970809,146.7955615446136,2.489162382274939
244,142.62,143.18,141.3,141.3,153615,142.6,139.23,136.6,120.79,130.3659359525756,147.04574527748414,2.4456507835410144
245,138.57,138.57,131.61,132.25,422755,141.68,138.94,136.67,120.92,129.53066559890573,146.95401337908825,2.963104299002371
246,131.25,131.37,127.5,129.25,297300,140.26,138.5,136.68,121.03,127.86376463493478,147.65853921132418,3.090739706216487
247,127.82,128.72,126.78,128.33,372420,138.72,137.93,136.65,121.14,126.22561106989795,148.5623117969721,3.046401155772452
248,128.26,129.04,127.8,128.76,174301,137.13,137.43,136.62,121.26,125.04358134983434,149.08316536516483,2.917372501788705
249,128.77,130.91,128.77,130.25,337684,135.71,137.28,136.61,121.39,124.4099408266749,149.329287560142,2.8625601802323692
250,131.06,131.57,129.555,130.25,318159,134.13,137.04,136.65,121.5,123.89641313955092,149.49192445680296,2.8020201673586276
251,130.78,132.0,129.875,130.62,251943,132.68,136.93,136.66,121.62,123.63284097835214,149.60115555862504,2.7536615839758687
252,130.44,130.6646,129.47,130.35,289663,131.26,136.74,136.64,121.75,123.3152647467805,149.77913868109187,2.642300042263307
253,130.37,132.18,129.5037,131.125,162486,130.13,136.45,136.6,121.9,122.76136998633791,149.75006852422376,2.644728610673071
254,130.89,131.9,130.125,130.4,451773,129.93,136.14,136.52,122.04,122.28945314562876,149.74301425100333,2.582605138482138
255,131.14,134.14,130.41,134.09,151814,130.46,135.95,136.5,122.2,121.89513111732704,149.5971876395239,2.6652762000191266
256,134.83,138.48,134.1,137.72,197644,131.51,135.81,136.56,122.37,121.79711258125457,149.38714385420369,2.7884707571606167
257,138.68,140.67,137.68,137.69,207520,132.5,135.6,136.63,122.54,121.87468667975995,149.2212823940583,2.802865703077714
258,138.21,140.12,137.935,139.31,124384,133.51,135.45,136.7,122.71,122.00433682176475,148.86007389282187,2.7762324385721633
259,139.19,140.415,138.74,139.4,143067,134.52,135.27,136.77,122.88,122.24359398497651,148.31174706916335,2.6975729786741507
260,140.0,141.24,139.2648,140.95,155792,135.67,135.17,136.89,123.06,122.44197981385929,147.80592292337116,2.6459749087688547
261,141.78,143.03,141.015,142.12,327875,136.98,135.05,137.0,123.23,122.57155170485738,147.47656699046712,2.6055481295710803
262,141.71,142.1,139.3316,140.6,224436,138.03,134.89,137.07,123.37,122.89545625109974,146.98662572561292,2.61860897745886
263,139.91,141.74,139.376,141.19,136735,139.23,134.8,137.22,123.51,123.19111539864372,146.53623249890683,2.600422621926085
264,141.34,142.47,140.94,141.52,143396,140.06,134.81,137.37,123.66,123.2292653599133,146.4037180140109,2.523963863217079
265,142.06,142.33,139.04,139.31,270268,140.23,135.16,137.4,123.8,123.3521874656121,146.9151308812053,2.5786807301301464
266,138.97,141.86,138.26,141.59,206875,140.67,135.78,137.44,123.95,124.16309475498656,147.45996873160288,2.6516321065494237
267,140.53,142.56,140.16,140.84,242431,140.84,136.4,137.48,124.09,125.18580447609361,147.73889092319826,2.6336583846530366
268,141.59,144.33,141.16,141.88,263347,141.11,137.06,137.54,124.24,126.11968249526856,148.1303803511058,2.694825642892106
269,141.4,143.23,140.45,142.55,202723,141.29,137.68,137.63,124.38,127.0732791143493,148.35229940346525,2.70090952554267
270,143.0,144.82,142.19,144.81,226031,141.59,138.4,137.76,124.54,127.9271801031712,148.72023198726666,2.695844559432479
271,144.24,145.9,143.39,144.8,216669,142.05,139.11,137.87,124.7,128.81240949762656,149.12079906355112,2.6825699480444465
272,144.33,144.41,142.6,142.96,206159,142.25,139.74,137.95,124.86,130.0932118604827,148.76830642563752,2.648100666041273
273,143.03,143.47,141.23,141.74,302254,142.28,140.27,138.04,125.04,131.71212039390423,148.24512855432772,2.618950618466897
274,142.77,143.98,141.38,143.83,193737,142.78,140.94,138.1,125.23,133.50582442820237,147.22072504689575,2.6175970028621185
275,144.95,144.95,143.34,144.51,155880,143.1,141.47,138.23,125.43,135.66971607532582,146.3315314468387,2.545625788371966
276,144.04,145.99,143.32,145.99,148765,143.67,141.88,138.39,125.62,136.9024078412553,146.46223225389883,2.5545096606311124
277,145.28,145.5,143.38,143.61,157137,143.87,142.18,138.47,125.8,137.23810707140902,146.69890973237807,2.5584732563003194
278,143.8,143.96,142.19,143.76,117661,144.0,142.4,138.57,125.99,137.67486708556322,146.5797569852532,2.5021537379931544
279,144.42,145.3,143.28,145.22,107668,144.05,142.69,138.81,126.18,137.94228837019455,146.59518108406013,2.4677141852793585
280,144.68,146.27,144.68,145.59,34886,144.13,142.92,139.02,126.37,138.0222130210786,146.83611472236208,2.405020314902262
>>>>>>> 200SMA_doubleAgent
