,o,h,l,c,v,sma9,sma20,sma50,sma200,lower,upper,atr
0,103.4,104.76,101.95,102.38,515351,,,,,,,2.8100000000000023
1,99.73,102.205,99.315,101.17,594153,,,,,,,2.828214285714288
2,101.62,103.76,100.81,103.64,270090,,,,,,,2.8369132653061246
3,103.79,105.72,102.2,102.75,276635,,,,,,,2.885705174927115
4,105.39,107.63,104.44,107.36,199266,,,,,,,3.028154805289464
5,105.34,105.8,102.65,103.98,236666,,,,,,,3.1482866049116445
6,101.61,107.41,101.33,107.28,493180,,,,,,,3.3576947045608128
7,102.74,105.0,99.478,101.46,529389,,,,,,,3.67514508280647
8,103.6,103.99,99.385,103.91,415301,103.77,,,,,,3.7415632911774357
9,101.67,101.67,97.92,99.05,639687,103.4,,,,,,3.90216591323619
10,92.48,96.4,87.5,94.4,788223,102.65,,,,,,4.448439776576462
11,98.08,99.44,91.12,96.42,476058,101.85,,,,,,4.724979792535286
12,87.4,94.48,87.4,87.87,573698,100.19,,,,,,5.0317669502113365
13,89.95,96.95,89.48,96.45,533056,98.98,,,,,,5.32092645376767
14,91.69,96.98,90.34,96.74,614591,98.18,,,,,,5.4151459927842645
15,96.49,101.22,93.59,98.64,299073,97.22,,,,,,5.573349850442531
16,98.81,99.9825,89.13,92.4,709083,96.21,,,,,,5.950432003982351
17,92.06,93.24,79.84,83.86,642938,93.98,,,,,,6.482544003697896
18,87.27,88.32,82.69,88.06,495291,92.76,,,,,,6.42164800343376
19,89.0,93.66,86.22,90.17,524600,92.29,97.9,,,79.43304256574078,111.16309668530971,6.49438743175992
20,90.85,97.34,90.216,96.2,355720,92.27,97.59,,,79.18782195508805,110.67433515621592,6.5426454723484975
21,94.54,95.84,92.1,93.89,435571,92.93,97.23,,,79.05147456965176,110.46638487646787,6.368170795752177
22,94.97,100.96,94.37,100.48,387313,93.38,97.07,,,79.14768986172162,110.17758934261748,6.418301453198449
23,100.52,102.75,97.44,99.54,465866,93.69,96.91,,,79.413220364073,109.74700730110234,6.339137063684275
24,97.71,98.675,95.44,96.32,250269,93.44,96.36,,,80.04201867757743,108.5537411147092,6.179198701992542
25,95.81,97.14,94.12,96.14,391636,93.85,95.96,,,80.555995064277,107.59429647158655,5.953541651850217
26,94.88,97.42,93.36,94.2,284999,95.0,95.31,,,81.01215333903716,106.0841948326198,5.818288676718058
27,97.07,101.18,97.07,100.76,451661,96.41,95.28,,,81.22276918603156,105.36238245446569,5.901268056952484
28,103.55,103.55,99.22,101.12,290436,97.63,95.14,,,81.2413202998864,105.26697303161812,5.789034624313021
29,101.63,105.29,100.64,104.205,283995,98.52,95.39,,,80.94879528978335,105.99659079944759,5.707675008290662
30,105.04,108.03,104.23,107.43,353358,100.02,96.04,,,80.56704592910066,107.69484368785483,5.573198221984187
31,106.99,107.43,102.3,102.33,182696,100.23,96.34,,,80.35000151085505,108.91269755040929,5.541541206128175
32,104.56,105.3658,103.36,103.76,190351,100.7,97.13,,,80.62046838597571,109.60164400669372,5.3625596914047335
33,102.28,104.19,100.61,100.82,386772,101.2,97.35,,,80.9982292487374,110.08784936668347,5.235233999161538
34,103.03,103.03,99.68,101.85,253933,101.83,97.61,,,81.3971525647533,110.38101593036589,5.100574427792857
35,103.86,105.02,102.4,102.85,216948,102.79,97.82,,,81.42906544268973,110.7889126826887,4.962676254379081
36,101.86,107.94,101.13,106.94,774451,103.48,98.55,,,82.1010162936737,111.71334784118845,5.0946279504948615
37,105.85,106.99,104.115,106.1,409805,104.03,99.66,,,85.08715213382477,112.11893687133934,4.936083096888086
38,106.99,107.035,104.12,106.54,328694,104.29,100.58,,,87.85175727713838,111.3174775678273,4.791720018538936
39,106.62,107.32,104.95,105.02,308738,104.02,101.32,,,90.01091036773772,111.22341897764016,4.618740017214726
40,105.41,105.41,103.09,104.37,263752,104.25,101.73,,,91.50888478245325,111.20661428481216,4.454544301699388
41,109.33,114.1,106.88,112.56,415411,105.23,102.67,,,92.4664332373643,112.59796659822302,4.831362565863717
42,112.6,114.66,110.99,111.18,246823,106.38,103.2,,,92.5266965871437,114.29077725252444,4.748408096873452
43,112.56,113.63,109.82,110.11,202200,107.3,103.73,,,92.55007581119139,115.50780986243423,4.6813789470967775
44,108.99,110.07,106.34,107.1,432210,107.77,104.27,,,93.41011660846706,115.68373297309604,4.616280450875579
45,110.56,110.56,104.71,106.14,472341,107.68,104.77,,,94.7889298501869,115.50071994021701,4.704403275813039
46,105.53,107.325,105.08,106.82,286955,107.76,105.4,,,96.6986829639529,114.74262248913622,4.5287316132549655
47,106.78,107.63,105.4,105.53,196363,107.65,105.64,,,97.79243300445208,114.45433693307918,4.364536498022468
48,106.77,107.05,104.76,104.88,209940,107.63,105.83,,,98.48107113414623,114.347761190729,4.216355319592291
49,105.52,106.89,105.14,105.38,212534,107.74,105.89,101.17,,98.95066294153584,114.33011930553668,4.0587585110499855
50,106.98,107.985,106.56,107.67,236238,107.2,105.9,101.28,,98.98916309257544,114.32783223219505,3.954918617403558
51,106.66,107.505,106.08,106.31,225764,106.66,106.1,101.38,,99.24646971103537,114.33029851408313,3.78599585901759
52,106.43,106.43,103.85,103.85,160803,105.96,106.1,101.38,,99.29286342737433,114.3084190794743,3.6998532976591916
53,103.39,103.39,101.645,102.42,212336,105.44,106.18,101.38,,99.49274839073246,114.38099340816433,3.5930780621121063
54,101.01,102.62,99.11,102.44,224926,105.03,106.21,101.28,,99.34373236878652,114.42994250635117,3.587143914818385
55,101.47,101.7,100.045,101.56,274689,104.45,106.15,101.23,,98.914842438595,114.73782231484755,3.5019907780456427
56,104.07,105.15,102.95,104.17,222330,104.3,106.01,101.17,,99.18756290887345,114.69912567816519,3.5082771510423827
57,103.79,105.7475,103.16,103.62,184618,104.16,105.88,101.21,,99.09969100113088,114.68422013077638,3.4425073545393556
58,104.45,105.515,104.08,104.31,106886,104.04,105.77,101.22,,99.09674499713019,114.66666810490031,3.3319711149294013
59,104.44,105.71,104.44,105.13,135763,103.76,105.78,101.34,,99.0707829812179,114.63254817952414,3.1939731781487293
60,104.97,105.25,103.71,104.97,117911,103.61,105.81,101.55,,99.13248485846444,114.63448830508173,3.075832236852392
61,107.34,110.19,106.78,109.59,289223,104.25,105.66,101.82,,99.13535928258658,113.86694436768343,3.228987077077221
62,111.07,112.65,110.35,112.57,240395,105.37,105.73,102.31,,99.24855790276716,113.33987722663834,3.216916571571706
63,113.33,113.33,110.94,111.59,195016,106.39,105.8,102.61,,99.06538402396926,113.25987177228687,3.157851102173727
64,111.1,111.53,109.71,111.44,132519,107.49,106.02,102.91,,98.84987990155527,113.51233651024883,3.066576023447033
65,111.28,111.88,110.6,111.43,216057,108.29,106.28,103.16,,98.63829158432684,113.75135836344313,2.938963450343674
66,111.75,112.47,110.94,112.07,181986,109.23,106.55,103.56,,98.45303640027868,114.41318491098735,2.8383232038905546
67,112.7,114.1,112.7,113.45,155626,110.25,106.94,104.15,,98.12197056339114,115.33822606728096,2.7805858321840864
68,113.5,113.5,111.015,112.21,138958,111.04,107.31,104.63,,98.12612576132142,116.05999204371864,2.7594725584566513
69,113.8,114.28,112.905,113.58,175360,111.99,107.72,105.1,,97.99622873884768,116.85668046168698,2.7102245185668914
70,112.82,114.0,112.29,113.54,194349,112.43,108.01,105.45,,97.91082073466299,117.50015938225448,2.6387799100978278
71,112.78,113.45,111.91,112.475,247902,112.42,108.32,105.82,,97.93434526833678,118.00911065833571,2.566724202233698
72,113.0,113.0,110.82,111.67,310216,112.43,108.71,106.04,,98.2821690611658,118.40075491990815,2.5391010449312916
73,110.0,110.61,104.21,104.32,276051,111.64,108.81,106.14,,98.68631446170997,118.29790406061113,2.8905938274362
74,106.69,107.53,104.74,106.02,58088,111.04,108.99,106.33,,99.77949050166407,117.9245546858744,2.913408554047901
75,103.44,106.54,103.065,105.41,195172,110.3,109.18,106.52,,100.45000849413124,117.33242011126252,2.9535222287587657
76,108.3,109.09,106.86,107.39,188571,109.62,109.34,106.78,,101.00625181363135,117.12744595444354,3.00541349813314
77,108.19,108.65,106.37,106.94,152749,109.04,109.51,106.9,,101.50791773569469,116.95108637434863,2.9535982482664873
78,106.28,107.97,105.97,107.1,136329,108.32,109.64,107.02,,101.80354729307331,116.73745136135898,2.885484087676024
79,107.21,107.99,106.1,107.63,205760,107.66,109.77,107.09,,102.05995237555634,116.52011405305205,2.814378081413451
80,106.94,107.67,105.5,107.55,177875,107.11,109.9,107.09,,102.38650572555787,116.21705386845301,2.768351075598205
81,108.46,108.46,106.92,107.49,177306,106.65,109.79,107.2,,102.40212726700553,116.24518286928615,2.6806117130554754
82,106.58,107.52,105.85,105.93,393235,106.83,109.46,107.24,,102.10480005641638,116.13349973467098,2.6084251621229413
83,105.41,107.63,103.78,107.58,230861,107.0,109.26,107.38,,101.52987071074945,115.86080483010232,2.6971090791141594
84,107.12,108.69,106.17,107.7,316312,107.26,109.07,107.49,,101.3433394712974,115.74199427359854,2.684458430606005
85,108.24,110.19,107.89,109.28,141427,107.47,108.97,107.62,,101.32810606577968,115.60372153532153,2.670568542705576
86,109.13,112.28,109.13,111.84,302554,108.01,108.96,107.72,,101.37326460940177,115.57791705523005,2.7048136467980353
87,111.91,112.665,110.95,112.52,196549,108.61,108.91,107.85,,101.53237965741673,115.32126965449741,2.634112672026747
88,113.44,115.01,113.44,114.97,213218,109.43,109.05,108.02,,101.28386981667953,115.64189140983108,2.623818909739123
89,115.99,116.66,114.18,115.25,212956,110.28,109.13,108.22,,101.1122624995202,116.22143938561857,2.6135461304720424
90,114.64,116.0,114.18,115.09,280935,111.13,109.21,108.44,,100.8942823479349,116.64364782932701,2.556864264009753
91,114.79,115.75,112.59,112.93,160006,111.91,109.23,108.44,,100.84034950687092,117.07255665962397,2.5999453880090564
92,113.16,114.14,111.405,113.83,272403,112.6,109.34,108.5,,100.81492381343485,117.23978787987282,2.60959214600841
93,114.17,115.17,112.395,115.06,190934,113.42,109.88,108.59,,101.1922225227334,117.77973304482082,2.6214069927220955
94,114.96,116.265,113.27,113.43,182870,113.88,110.25,108.72,,101.51507893312233,118.44878612282697,2.6480922075276605
95,113.76,116.5,113.69,116.34,156651,114.38,110.79,108.93,,102.26098920350053,118.96242640346775,2.6782284784185415
96,117.44,118.29,116.54,117.98,269467,114.99,111.32,109.15,,102.15673619038587,119.874660279587,2.6262121585315032
97,118.04,118.49,116.8,117.21,215895,115.24,111.84,109.38,,102.25740587600413,120.66982805276376,2.5593398614935388
98,118.0,119.71,117.34,119.46,198097,115.7,112.45,109.67,,102.52539921761662,121.52399179023314,2.555101299958286
99,119.4,119.75,118.27,119.27,159832,116.17,113.04,109.95,,102.84101778786562,122.20783364833275,2.4783083499612655
100,119.58,119.87,117.67,118.2,341875,116.75,113.57,110.16,,103.51884347691856,122.70127773552885,2.4584291821068898
101,118.25,118.98,117.41,118.475,347333,117.27,114.12,110.41,,104.10006178729553,122.95567239500987,2.394969954813541
102,118.39,119.23,118.09,118.39,249656,117.64,114.74,110.7,,105.01389198245832,122.93209630994566,2.305329243755431
103,119.34,119.785,118.38,118.84,205608,118.24,115.3,111.02,,106.75430320712843,122.74713006917764,2.2410200120586143
104,118.83,120.45,118.5,119.85,254417,118.63,115.91,111.37,,108.11305759669534,122.57798858187563,2.220232868340142
105,119.81,119.81,117.78,118.02,302215,118.64,116.35,111.7,,109.29069078128254,122.31545232938629,2.2095019491729886
106,118.72,119.41,117.33,118.75,421108,118.81,116.69,111.99,,110.35414990368292,122.18301929569441,2.2002518099463466
107,117.75,118.91,116.7,117.85,635354,118.63,116.96,112.28,,111.09064025280905,121.89221028951827,2.200948109235893
108,115.0,117.9,111.22,115.1,1068435,118.16,116.97,112.49,,110.65221844931108,121.7963276673347,2.5208803871476158
109,116.85,119.68,114.85,118.79,488332,118.23,117.14,112.77,,110.71913292373188,121.95428581844463,2.685817502351359
110,118.95,120.18,118.22,118.7,402336,118.25,117.32,113.04,,110.85717463506725,122.11153375920345,2.633973395040548
111,119.56,120.67,118.22,118.36,278050,118.25,117.6,113.22,,111.29511803918012,122.26492413009797,2.620832438251938
112,118.82,120.11,116.68,117.66,443422,118.12,117.79,113.32,,112.10845928632703,121.91885585066532,2.678630121233942
113,117.07,119.37,116.78,119.32,343779,118.06,118.0,113.47,,112.77171228455222,121.53356302411301,2.6722993982886605
114,119.58,119.58,116.9,117.0,331800,117.95,118.18,113.58,,113.29887212613218,121.26811205994262,2.6728494412680415
115,118.02,119.35,116.53,116.66,270787,117.72,118.19,113.69,,113.76172387416602,120.87830441368925,2.683360195463181
116,116.92,118.57,116.75,118.1,305677,117.74,118.2,113.81,,113.77727309865247,120.84729972177387,2.628120181501525
117,119.14,119.92,118.01,118.24,259074,118.09,118.25,113.91,,113.81011030656464,120.84561454032071,2.5768258828228445
118,117.91,118.64,116.77,117.87,283443,117.99,118.17,114.02,,113.78116098710295,120.85379733531641,2.5263383197640703
119,118.7,119.37,117.32,117.75,225856,117.88,118.1,114.1,,113.78080923555216,120.83115075325155,2.4923141540666376
120,117.06,118.125,116.6,117.47,247441,117.79,118.06,114.18,,113.73824273015633,120.86143536305843,2.423220285919021
121,117.12,118.35,116.4,117.8,280336,117.8,118.03,114.29,,113.68630400859335,120.8940723256797,2.3894188369248046
122,118.92,119.76,118.53,119.18,367122,117.79,118.07,114.44,,113.66829024849162,120.92869806011713,2.358746062858748
123,119.54,119.54,117.93,118.13,179243,117.91,118.03,114.71,,113.6821613732182,120.90727378773163,2.30526420122598
124,117.99,119.0,117.56,118.59,172110,118.13,117.97,114.97,,113.70681479146182,120.75731592455634,2.243459615424124
125,118.63,120.62,118.5,120.05,373349,118.34,118.07,115.26,,113.68232499349331,120.89845193558858,2.2346410714652585
126,119.7,119.7,118.0,118.2,531681,118.34,118.04,115.47,,113.68265361932147,120.92063501344585,2.2214524235034543
127,118.58,119.16,117.78,118.3,229582,118.39,118.06,115.7,,113.71640638298335,120.921623347928,2.161348678967493
128,117.94,119.64,117.94,119.48,210542,118.58,118.28,115.95,,115.47618760356208,120.84471293204984,2.1283952018983867
129,119.75,122.44,118.97,122.15,234496,119.1,118.45,116.24,,115.93928715624189,121.52050593160293,2.224224116048502
130,122.28,122.28,118.5,119.17,400403,119.25,118.47,116.47,,115.92249475645296,121.95936394348787,2.3353509649021804
131,120.04,120.3,116.49,118.71,347666,119.2,118.49,116.7,,115.80570269539477,121.91353397209485,2.440683038837739
132,118.13,118.13,116.04,116.07,270480,118.97,118.41,116.9,,115.68801906267213,121.91033558717571,2.4570628217779
133,116.64,118.63,116.64,117.89,226192,118.89,118.34,117.11,,115.669088059492,121.9115796056631,2.464415477365193
134,118.31,118.91,116.71,117.19,437229,118.57,118.35,117.3,,115.64588060696529,121.8955838411231,2.445528657553394
135,117.88,118.71,117.13,118.38,172654,118.59,118.44,117.48,,115.71845198590056,121.89043515439332,2.3837051820138657
136,119.37,120.06,118.47,119.0,205317,118.67,118.48,117.62,,115.77537166418915,121.9370726029902,2.333440526155733
137,119.44,119.8,118.12,118.3,99643,118.54,118.48,117.74,,115.77359316248923,121.9278897127874,2.2867662028588946
138,119.4813,119.4813,117.57,117.77,128827,118.05,118.48,117.79,,115.84964762017968,121.93086780117201,2.2599471883689746
139,116.5,117.24,115.08,115.95,242250,117.7,118.39,117.81,,115.40957336215064,122.05221538862654,2.2906652463426194
140,116.58,116.75,114.23,115.07,258112,117.29,118.27,117.81,,114.85467113829337,122.2028355791929,2.307046300175289
141,113.6,114.04,111.82,113.45,124041,117.0,118.05,117.82,,113.62019465949363,122.86773249941655,2.3744001358770546
142,113.56,114.67,113.56,114.34,159938,116.61,117.81,117.83,,113.10216154733939,123.12449425806373,2.291942983314408
143,113.68,114.53,111.71,112.12,124889,116.04,117.51,117.77,,112.18488439571512,123.30567957676553,2.3296613416490937
144,111.9,113.17,111.16,112.27,184050,115.36,117.19,117.74,,111.27915759905382,123.63253050612002,2.306828388674159
145,111.46,112.58,111.46,112.08,213876,114.59,116.79,117.66,,110.61745827148675,123.72946376383312,2.222054932340291
146,113.17,114.22,112.04,112.48,185780,113.95,116.51,117.55,,110.15479079934467,123.63699458754571,2.2190510086016983
147,112.06,113.35,111.745,112.6,398337,113.37,116.22,117.46,,109.70091256032329,123.6174191369978,2.175190222273005
148,113.27,113.935,112.5,113.14,225601,113.06,115.91,117.33,,109.44678347148091,123.43187988860518,2.122319492110648
149,113.45,114.97,113.14,113.71,231711,112.91,115.48,117.22,,109.42811768098258,122.60823685494971,2.101439528388459
150,112.31,114.175,112.31,112.91,196092,112.85,115.17,117.11,,109.33387810428482,121.69977400484032,2.084550990646426
151,113.36,114.93,113.21,114.6,192596,112.88,114.97,117.04,,109.24349161106608,121.1322882797441,2.0799402056002534
152,115.01,115.9,113.92,114.51,264793,113.14,114.89,116.96,,109.20965203735179,120.9304740923238,2.07280161948595
153,115.09,116.17,114.5,114.98,142327,113.45,114.74,116.88,,109.24182030677741,120.65168596519128,2.044030075236954
154,115.8,116.79,115.52,116.52,222482,113.94,114.71,116.81,,109.29511206064566,120.35253393715941,2.0273136412914576
155,118.12,118.39,116.185,116.85,233329,114.42,114.63,116.79,,109.36541012670847,120.295382817908,2.0400055240563533
156,117.05,118.825,116.7,118.06,206674,115.03,114.59,116.78,,109.59244361095293,120.01548736587723,2.046076558052328
157,117.7,118.91,117.25,117.67,236605,115.53,114.55,116.77,,109.72048068451562,119.80823694083645,2.0184996610485904
158,117.5,118.03,116.04,116.45,133934,115.84,114.49,116.8,,109.89470858916877,119.49804219576524,2.0164639709736907
159,114.72,116.59,114.22,116.34,198125,116.22,114.51,116.75,,109.89797406193803,119.41803168561319,2.0417165444755705
160,116.71,117.23,116.19,116.27,95791,116.41,114.57,116.7,,109.83493846284628,119.47922142885133,1.970165362727316
161,116.64,116.64,114.58,115.19,129430,116.48,114.65,116.64,,110.06705785394792,119.56765695802035,1.9765821225325078
162,116.05,117.56,115.22,117.0,295091,116.71,114.79,116.63,,110.10907871703024,119.76566889740111,2.0046833994944717
163,117.27,118.4,117.27,117.75,160339,116.84,115.07,116.6,,110.27647239049335,120.06647969475192,1.96149172810201
164,117.89,118.475,116.745,118.31,203380,117.0,115.37,116.62,,110.68941742485902,120.2339547748116,1.9449566046661513
165,118.75,118.97,117.48,118.35,134930,117.04,115.68,116.66,,111.06281935185568,120.31037304866176,1.9124597043328544
166,117.35,117.49,115.93,117.39,169533,117.01,115.93,116.64,,111.46945691191716,120.31165934690189,1.9487125825947924
167,117.17,117.19,115.61,115.65,187119,116.92,116.08,116.59,,112.01129595370537,120.11212258836522,1.9366616838380217
168,114.11,114.61,112.25,112.34,255596,116.47,116.04,116.48,,111.95255389899125,120.01986047834835,2.0411858492781634
169,112.3,113.1,110.3445,112.9,366544,116.1,116.0,116.38,,111.2478457343588,120.28818674037153,2.092208288615437
170,116.25,116.76,113.54,114.14,510820,115.98,116.06,116.32,,111.45981842062892,120.16299497338402,2.218479125142906
171,115.17,118.29,114.67,118.19,360554,116.11,116.24,116.32,,111.63731100119773,120.21011106217334,2.356444901918413
172,118.5,121.46,118.329,119.57,378381,116.32,116.5,116.33,,111.65404985618565,120.96770059007262,2.421698837495669
173,120.0,120.02,118.1,119.05,241867,116.4,116.7,116.35,,111.68030139418782,121.27604343966755,2.3858632062459786
174,120.61,123.1,120.43,122.81,297596,116.89,117.01,116.43,,111.3741732932922,122.29922970736868,2.5047301200855516
175,123.59,124.61,122.47,123.6,332389,117.58,117.35,116.5,,110.7975658775544,123.5302803966089,2.4786779686508695
176,127.62,128.86,122.11,123.18,556380,118.42,117.61,116.6,,110.44637799493667,125.85205022620046,2.783772399461523
177,123.39,128.8,122.9466,127.63,511397,120.12,118.11,116.79,,110.0644540755787,127.64487568295344,3.0030315137857
178,127.75,127.75,124.365,125.2,320980,121.49,118.54,116.9,,109.66935090604866,128.91351938508316,3.0303149770867224
179,124.24,125.21,122.59,124.18,139680,122.6,118.93,116.95,,109.84284947155804,129.5198147656122,3.0010067644376703
180,124.1,126.0,124.1,124.73,115844,123.33,119.36,117.06,,109.73895062904252,130.1878208641807,2.9223634241206944
181,126.28,127.0,125.57,126.74,321922,124.12,119.94,117.22,,109.78396521120877,130.90892167884226,2.8757660366835016
182,126.26,128.1,125.7,127.45,270075,125.06,120.46,117.44,,109.88925810709536,131.74664953961968,2.8417827483489653
183,127.43,127.86,125.97,126.38,253527,125.45,120.89,117.61,,109.86002938379085,132.4518500348771,2.7737982663240395
184,126.7,127.615,126.0,127.22,350079,125.86,121.34,117.82,,109.98800915144477,133.0269224915117,2.6910269615866076
185,127.51,128.36,127.19,127.79,305291,126.37,121.81,118.0,,110.03730605408161,133.64579306387247,2.5823821786161365
186,128.06,129.12,126.4024,126.87,217443,126.28,122.28,118.16,,110.45653682645253,134.20519433799709,2.5920405944292697
187,128.16,128.47,126.875,127.88,409401,126.58,122.89,118.35,,111.01379046891078,134.5078509301678,2.5211805519700357
188,128.48,128.48,125.77,126.36,204976,126.82,123.59,118.52,,112.48726632555503,134.29041884263003,2.534667655400747
189,126.55,127.3,126.08,126.91,78170,127.07,124.29,118.74,,114.89980572753734,133.19244242695012,2.4407628228721223
190,126.79,126.93,125.685,126.32,122607,127.02,124.9,118.97,,116.76320775331912,132.43943621632056,2.355351192666971
191,127.15,128.58,126.42,127.81,110298,127.06,125.38,119.26,,118.6877025464952,131.81898846930187,2.3485403931907602
192,127.36,128.05,125.72,126.26,98417,127.05,125.72,119.49,,119.7615729749422,131.54885333091943,2.347216079391421
193,126.07,127.11,125.15,125.87,76735,126.9,126.06,119.77,,121.19526242312644,130.49235303972372,2.3195577880063194
194,125.48,127.8,125.48,127.73,121048,126.89,126.31,120.08,,122.0963828815559,129.99943072639215,2.319589374577296
195,127.99,128.99,127.64,128.55,82506,127.08,126.55,120.41,,122.42896939160238,129.8387295447282,2.2503329906789182
196,128.29,130.9,127.9381,129.09,132518,127.21,126.85,120.74,,122.93991524386195,130.3305169227921,2.301159205630424
197,129.13,130.18,128.66,129.53,112044,127.56,126.94,121.08,,123.23400130994386,130.57792214021794,2.245362119513966
198,129.47,131.09,129.02,130.47,194405,127.96,127.21,121.43,,123.25572624392632,131.08800071216214,2.2328362538343964
199,129.59,131.1,129.59,130.46,133337,128.42,127.52,121.76,112.53,123.75107254730726,131.3185495634224,2.1812050928462248
200,131.05,131.99,128.2,128.41,145900,128.49,127.71,122.07,112.66,124.11505630949257,131.7862109812799,2.296119014785782
201,128.56,130.65,128.31,130.34,119406,128.94,127.88,122.38,112.8,124.22627547180866,131.9642769213537,2.299253370872512
202,130.99,131.7399,130.2,131.11,214561,129.52,128.07,122.72,112.94,124.13328434420632,132.3647558262924,2.24501384438162
203,131.29,133.69,131.0,133.13,244429,130.12,128.41,123.08,113.09,123.97154121250406,133.18498610197824,2.2767985697829327
204,134.0,134.67,133.64,134.55,333405,130.79,128.77,123.44,113.23,123.41217402718135,134.1076405578547,2.2241701005127226
205,132.78,135.0,131.5,134.84,142041,131.43,129.12,123.8,113.38,123.32661366772331,134.97111895953648,2.3153008076189567
206,134.65,136.22,134.01,134.73,183236,132.0,129.52,124.13,113.52,123.04548980755467,136.0131514062501,2.3077793213604605
207,134.52,135.75,134.45,134.52,146110,132.45,129.85,124.47,113.68,122.81824190683933,136.77100902699664,2.235795084120429
208,135.0,136.37,134.65,135.7,72391,133.04,130.32,124.86,113.84,122.87452538099411,137.54807936633696,2.2082382923975405
209,136.19,137.14,135.055,135.67,74962,133.84,130.75,125.24,114.03,122.9795568883627,138.2863047560938,2.1994355572262863
210,136.27,136.75,134.8387,135.24,61926,134.39,131.2,125.62,114.23,123.31720721601131,138.74490840833113,2.1788544459958383
211,135.91,137.36,135.456,136.38,70210,134.97,131.63,126.05,114.43,123.59155962759742,139.34048245182152,2.174650556996136
212,136.77,137.32,135.61,136.97,106212,135.4,132.16,126.44,114.68,124.11845768400941,139.7531339043568,2.1414612314964105
213,135.92,137.97,133.68,134.05,281139,135.34,132.57,126.77,114.86,125.03547940439579,140.00762255190625,2.2949282863895233
214,134.13,135.29,133.54,133.79,157556,135.23,132.88,127.08,115.05,126.03179160134889,139.7916230683233,2.2560048373617003
215,134.22,137.97,134.22,137.72,224162,135.56,133.33,127.47,115.24,126.6248771153866,139.988991771066,2.3934330632644363
216,137.52,140.0,136.505,139.7,138122,136.14,133.87,127.91,115.48,127.10904062229774,140.70288648771006,2.4721164158884052
217,139.57,140.62,137.755,139.05,100596,136.51,134.34,128.38,115.76,127.43524907803882,141.31023341110054,2.5001795290392343
218,139.5,139.87,138.38,138.71,82840,136.85,134.75,128.91,116.01,127.76331247788194,141.69423978340845,2.4280238483935754
219,138.81,139.23,137.09,138.07,314837,137.16,135.13,129.41,116.25,128.24248300358028,141.8261668995033,2.407450716365462
220,137.95,139.58,136.14,138.54,380068,137.4,135.64,129.9,116.46,129.24223678071854,142.00474727427877,2.4812042366250737
221,138.5,140.71,137.52,139.28,156386,137.66,136.09,130.32,116.69,130.36579751572071,141.99545332927664,2.5318325054375683
222,139.04,141.33,138.37,138.83,128710,138.19,136.47,130.71,116.88,131.0494395019578,142.097939147274,2.5624158979063143
223,139.58,140.62,137.25,137.25,178198,138.57,136.68,131.07,117.07,131.76538423194842,142.22274771172033,2.620100476627292
224,137.73,140.75,137.49,140.62,193695,138.89,136.98,131.43,117.29,131.96098910063398,142.39454506121146,2.6829504425824857
225,140.27,141.125,138.01,138.01,176250,138.71,137.14,131.72,117.5,132.710350465592,142.5785382448295,2.713811125255166
226,137.86,138.38,137.11,138.19,182594,138.61,137.31,132.02,117.72,132.96984057913372,142.52884679984263,2.61068175916551
227,138.16,139.92,137.85,139.57,156963,138.71,137.57,132.26,117.91,133.1603469821447,142.5061793255439,2.57206163351083
228,139.43,140.0,137.08,138.8,99822,138.79,137.72,132.53,118.1,133.3673150735381,142.5084855901126,2.5969143739743417
229,137.53,137.53,133.15,133.25,140782,138.2,137.6,132.71,118.25,132.98620301511798,142.48508374322222,2.8149919186904606
230,134.08,135.8,133.6064,135.03,121293,137.73,137.59,132.91,118.38,132.76653124814752,142.60089393668667,2.7960639244982857
231,134.43,135.36,131.82,132.95,183439,137.07,137.42,133.04,118.54,132.06641229869567,142.80476201221964,2.8492022156055525
232,134.13,134.39,131.805,134.06,153040,136.72,137.27,133.17,118.69,131.4424302377793,143.11945897792958,2.830330628776583
233,135.05,138.12,134.74,136.93,148301,136.31,137.42,133.38,118.87,131.5827845149152,143.12121579669574,2.9181641552925415
234,136.16,137.3,135.385,136.55,103517,136.15,137.56,133.57,119.04,131.81490283486298,142.95876739085483,2.846509572771647
235,136.12,138.4,135.0,137.9,208557,136.12,137.56,133.77,119.22,131.9112298756041,142.9632430610617,2.8860446032879588
236,139.46,140.73,138.715,140.56,129043,136.23,137.61,134.04,119.39,131.86355140332532,143.05283552946233,2.882041417338818
237,141.25,142.0,140.53,141.99,130728,136.58,137.75,134.33,119.57,131.63381362576192,143.28216043193743,2.781181316100331
238,141.96,142.89,141.22,142.15,143136,137.57,137.93,134.64,119.74,131.36571348349236,143.7587910609473,2.7018112220931636
239,143.0,144.105,142.505,143.14,95024,138.47,138.18,134.97,119.93,130.97489720600643,144.50226669436472,2.6484675633722223
240,143.5,144.32,142.06,142.97,121109,139.58,138.4,135.3,120.13,130.8178207290367,145.1893795084377,2.6207198802742058
241,142.38,144.76,142.38,144.5,83893,140.74,138.66,135.63,120.29,130.62260849448256,145.8308390559095,2.603525603111762
242,144.61,144.72,142.9,143.67,140786,141.49,138.9,135.98,120.45,130.40456633848348,146.35603279536622,2.547559488603779
243,143.75,144.175,142.445,143.11,164136,142.22,139.2,136.33,120.61,130.3361577970809,146.7955615446136,2.489162382274939
244,142.62,143.18,141.3,141.3,153615,142.6,139.23,136.6,120.79,130.3659359525756,147.04574527748414,2.4456507835410144
245,138.57,138.57,131.61,132.25,422755,141.68,138.94,136.67,120.92,129.53066559890573,146.95401337908825,2.963104299002371
246,131.25,131.37,127.5,129.25,297300,140.26,138.5,136.68,121.03,127.86376463493478,147.65853921132418,3.090739706216487
247,127.82,128.72,126.78,128.33,372420,138.72,137.93,136.65,121.14,126.22561106989795,148.5623117969721,3.046401155772452
248,128.26,129.04,127.8,128.76,174301,137.13,137.43,136.62,121.26,125.04358134983434,149.08316536516483,2.917372501788705
249,128.77,130.91,128.77,130.25,337684,135.71,137.28,136.61,121.39,124.4099408266749,149.329287560142,2.8625601802323692
250,131.06,131.57,129.555,130.25,318159,134.13,137.04,136.65,121.5,123.89641313955092,149.49192445680296,2.8020201673586276
251,130.78,132.0,129.875,130.62,251943,132.68,136.93,136.66,121.62,123.63284097835214,149.60115555862504,2.7536615839758687
252,130.44,130.6646,129.47,130.35,289663,131.26,136.74,136.64,121.75,123.3152647467805,149.77913868109187,2.642300042263307
253,130.37,132.18,129.5037,131.125,162486,130.13,136.45,136.6,121.9,122.76136998633791,149.75006852422376,2.644728610673071
254,130.89,131.9,130.125,130.4,451773,129.93,136.14,136.52,122.04,122.28945314562876,149.74301425100333,2.582605138482138
255,131.14,134.14,130.41,134.09,151814,130.46,135.95,136.5,122.2,121.89513111732704,149.5971876395239,2.6652762000191266
256,134.83,138.48,134.1,137.72,197644,131.51,135.81,136.56,122.37,121.79711258125457,149.38714385420369,2.7884707571606167
257,138.68,140.67,137.68,137.69,207520,132.5,135.6,136.63,122.54,121.87468667975995,149.2212823940583,2.802865703077714
258,138.21,140.12,137.935,139.31,124384,133.51,135.45,136.7,122.71,122.00433682176475,148.86007389282187,2.7762324385721633
259,139.19,140.415,138.74,139.4,143067,134.52,135.27,136.77,122.88,122.24359398497651,148.31174706916335,2.6975729786741507
260,140.0,141.24,139.2648,140.95,155792,135.67,135.17,136.89,123.06,122.44197981385929,147.80592292337116,2.6459749087688547
261,141.78,143.03,141.015,142.12,327875,136.98,135.05,137.0,123.23,122.57155170485738,147.47656699046712,2.6055481295710803
262,141.71,142.1,139.3316,140.6,224436,138.03,134.89,137.07,123.37,122.89545625109974,146.98662572561292,2.61860897745886
263,139.91,141.74,139.376,141.19,136735,139.23,134.8,137.22,123.51,123.19111539864372,146.53623249890683,2.600422621926085
264,141.34,142.47,140.94,141.52,143396,140.06,134.81,137.37,123.66,123.2292653599133,146.4037180140109,2.523963863217079
265,142.06,142.33,139.04,139.31,270268,140.23,135.16,137.4,123.8,123.3521874656121,146.9151308812053,2.5786807301301464
266,138.97,141.86,138.26,141.59,206875,140.67,135.78,137.44,123.95,124.16309475498656,147.45996873160288,2.6516321065494237
267,140.53,142.56,140.16,140.84,242431,140.84,136.4,137.48,124.09,125.18580447609361,147.73889092319826,2.6336583846530366
268,141.59,144.33,141.16,141.88,263347,141.11,137.06,137.54,124.24,126.11968249526856,148.1303803511058,2.694825642892106
269,141.4,143.23,140.45,142.55,202723,141.29,137.68,137.63,124.38,127.0732791143493,148.35229940346525,2.70090952554267
270,143.0,144.82,142.19,144.81,226031,141.59,138.4,137.76,124.54,127.9271801031712,148.72023198726666,2.695844559432479
271,144.24,145.9,143.39,144.8,216669,142.05,139.11,137.87,124.7,128.81240949762656,149.12079906355112,2.6825699480444465
272,144.33,144.41,142.6,142.96,206159,142.25,139.74,137.95,124.86,130.0932118604827,148.76830642563752,2.648100666041273
273,143.03,143.47,141.23,141.74,302254,142.28,140.27,138.04,125.04,131.71212039390423,148.24512855432772,2.618950618466897
274,142.77,143.98,141.38,143.83,193737,142.78,140.94,138.1,125.23,133.50582442820237,147.22072504689575,2.6175970028621185
275,144.95,144.95,143.34,144.51,155880,143.1,141.47,138.23,125.43,135.66971607532582,146.3315314468387,2.545625788371966
276,144.04,145.99,143.32,145.99,148765,143.67,141.88,138.39,125.62,136.9024078412553,146.46223225389883,2.5545096606311124
277,145.28,145.5,143.38,143.61,157137,143.87,142.18,138.47,125.8,137.23810707140902,146.69890973237807,2.5584732563003194
278,143.8,143.96,142.19,143.76,117661,144.0,142.4,138.57,125.99,137.67486708556322,146.5797569852532,2.5021537379931544
279,144.42,145.3,143.28,145.22,107668,144.05,142.69,138.81,126.18,137.94228837019455,146.59518108406013,2.4677141852793585
280,144.68,146.27,144.68,145.59,34886,144.13,142.92,139.02,126.37,138.0222130210786,146.83611472236208,2.405020314902262
