,o,h,l,c,v,sma9,sma20,sma50,sma200,lower,upper,atr
0,99.73,102.205,99.315,101.17,594153,,,,,,,2.8900000000000006
1,101.62,103.76,100.81,103.64,270090,,,,,,,2.894285714285715
2,103.79,105.72,102.2,102.75,276635,,,,,,,2.938979591836735
3,105.39,107.63,104.44,107.36,199266,,,,,,,3.0776239067055395
4,105.34,105.8,102.65,103.98,236666,,,,,,,3.1942221990837147
5,101.61,107.41,101.33,107.28,493180,,,,,,,3.4003491848634493
6,102.74,105.0,99.478,101.46,529389,,,,,,,3.7147528145160607
7,103.6,103.99,99.385,103.91,415301,,,,,,,3.7783418991934843
8,101.67,101.67,97.92,99.05,639687,103.4,,,,,,3.936317477822521
9,92.48,96.4,87.5,94.4,788223,102.65,,,,,,4.480151943692341
10,98.08,99.44,91.12,96.42,476058,101.85,,,,,,4.754426804857173
11,87.4,94.48,87.4,87.87,573698,100.19,,,,,,5.0591106045102325
12,89.95,96.95,89.48,96.45,533056,98.98,,,,,,5.346316989902359
13,91.69,96.98,90.34,96.74,614591,98.18,,,,,,5.4387229191950475
14,96.49,101.22,93.59,98.64,299073,97.22,,,,,,5.595242710681116
15,98.81,99.9825,89.13,92.4,709083,96.21,,,,,,5.970761088489607
16,92.06,93.24,79.84,83.86,642938,93.98,,,,,,6.501421010740349
17,87.27,88.32,82.69,88.06,495291,92.76,,,,,,6.439176652830324
18,89.0,93.66,86.22,90.17,524600,92.29,,,,,,6.510664034771015
19,90.85,97.34,90.216,96.2,355720,92.27,97.59,,,79.18782195508807,110.6743351562159,6.5577594608588
20,94.54,95.84,92.1,93.89,435571,92.93,97.23,,,79.05147456965177,110.46638487646786,6.382205213654601
21,94.97,100.96,94.37,100.48,387313,93.38,97.07,,,79.14768986172164,110.17758934261747,6.4313334126792725
22,100.52,102.75,97.44,99.54,465866,93.69,96.91,,,79.41322036407301,109.74700730110231,6.351238168916468
23,97.71,98.675,95.44,96.32,250269,93.44,96.36,,,80.04201867757745,108.55374111470917,6.190435442565293
24,95.81,97.14,94.12,96.14,391636,93.85,95.96,,,80.55599506427704,107.59429647158653,5.963975768096343
25,94.88,97.42,93.36,94.2,284999,95.0,95.31,,,81.01215333903718,106.08419483261976,5.827977498946605
26,97.07,101.18,97.07,100.76,451661,96.41,95.28,,,81.22276918603158,105.36238245446566,5.910264820450419
27,103.55,103.55,99.22,101.12,290436,97.63,95.14,,,81.24132029988643,105.26697303161811,5.797388761846818
28,102.65,105.29,100.64,104.205,288543,98.52,95.39,,,80.94879528978338,105.99659079944756,5.715432421714903
29,105.04,108.03,104.23,107.43,353358,100.02,96.04,,,80.56704592910069,107.6948436878548,5.580401534449553
30,106.99,107.43,102.3,102.33,182696,100.23,96.34,,,80.35000151085507,108.91269755040928,5.548229996274586
31,104.56,105.3658,103.36,103.76,190351,100.7,97.13,,,80.62046838597573,109.60164400669368,5.368770710826401
32,102.28,104.19,100.61,100.82,386772,101.2,97.35,,,80.99822924873742,110.08784936668346,5.241001374338801
33,103.03,103.03,99.68,101.85,253933,101.83,97.61,,,81.39715256475331,110.38101593036588,5.105929847600315
34,103.86,105.02,102.4,102.85,216948,102.79,97.82,,,81.42906544268975,110.78891268268869,4.967649144200292
35,101.86,107.94,101.13,106.94,774451,103.48,98.55,,,82.10101629367372,111.71334784118845,5.099245633900272
36,105.85,106.99,104.115,106.1,409805,104.03,99.66,,,85.08715213382479,112.11893687133933,4.940370945764538
37,106.99,107.035,104.12,106.31,340048,104.27,100.57,,,87.8517572771384,111.3174775678273,4.795701592495642
38,106.62,107.32,104.95,105.02,308738,104.0,101.31,,,90.01091036773775,111.22341897764016,4.622437193031667
39,105.41,105.41,103.09,104.37,263752,104.22,101.72,,,91.50888478245326,111.20661428481216,4.457977393529405
40,109.33,114.1,106.88,112.56,415411,105.2,102.66,,,92.46643323736433,112.59796659822304,4.834550436848733
41,112.6,114.66,110.99,111.18,246823,106.35,103.19,,,92.52669658714373,114.29077725252445,4.75136826278811
42,112.56,113.63,109.82,110.11,202200,107.27,103.72,,,92.5500758111914,115.50780986243424,4.68412767258896
43,108.99,110.07,106.34,107.1,432210,107.74,104.26,,,93.41011660846709,115.68373297309606,4.618832838832605
44,110.56,110.56,104.71,106.14,472341,107.65,104.76,,,94.78892985018693,115.50071994021705,4.706773350344563
45,105.53,107.325,105.08,106.82,286955,107.73,105.39,,,96.69868296395293,114.74262248913627,4.530932396748524
46,106.78,107.63,105.4,105.53,196363,107.65,105.63,,,97.79243300445212,114.45433693307922,4.366580082695058
47,106.77,107.05,104.76,104.88,209940,107.63,105.82,,,98.48107113414628,114.34776119072906,4.218252933931125
48,105.52,106.89,105.14,105.38,212534,107.74,105.87,,,98.95066294153588,114.33011930553674,4.060520581507474
49,106.98,107.985,106.56,107.67,236238,107.2,105.89,101.27,,98.98916309257548,114.3278322321951,3.9565548256855116
50,106.66,107.505,106.08,106.31,225764,106.66,106.08,101.38,,99.24646971103542,114.33029851408318,3.787515195279404
51,106.43,106.43,103.85,103.85,160803,105.96,106.09,101.38,,99.29286342737437,114.30841907947435,3.7012641099023047
52,103.39,103.39,101.645,102.42,212336,105.44,106.17,101.37,,99.4927483907325,114.38099340816437,3.59438810205214
53,101.01,102.62,99.11,102.44,224926,105.03,106.2,101.27,,99.34373236878656,114.42994250635122,3.5883603804769875
54,101.47,101.7,100.045,101.56,274689,104.45,106.13,101.23,,98.91484243859504,114.73782231484759,3.5031203533000594
55,104.07,105.15,102.95,104.17,222330,104.3,106.0,101.16,,99.18756290887347,114.69912567816525,3.5093260423500556
56,103.79,105.7475,103.16,103.62,184618,104.16,105.87,101.21,,99.09969100113092,114.68422013077642,3.443481325039338
57,104.45,105.515,104.08,104.31,106886,104.04,105.77,101.21,,99.09674499713023,114.66666810490037,3.3328755161079564
58,104.44,105.71,104.44,105.13,135763,103.76,105.78,101.34,,99.07078298121795,114.63254817952418,3.1948129792431015
59,104.97,105.25,103.71,104.97,117911,103.61,105.81,101.55,,99.13248485846448,114.63448830508177,3.0766120521543088
60,107.34,110.19,106.78,109.59,289223,104.25,105.66,101.81,,99.13535928258663,113.86694436768347,3.229711191286144
61,111.07,112.65,110.35,112.57,240395,105.37,105.73,102.31,,99.24855790276719,113.3398772266384,3.2175889633371337
62,113.33,113.33,110.94,111.59,195016,106.39,105.8,102.61,,99.0653840239693,113.25987177228693,3.15847546595591
63,111.1,111.53,109.71,111.44,132519,107.49,106.02,102.9,,98.8498799015553,113.51233651024889,3.0671557898162027
64,111.28,111.88,110.6,111.43,216057,108.29,106.28,103.16,,98.63829158432688,113.75135836344317,2.9395018048293315
65,111.75,112.47,110.94,112.07,181986,109.23,106.55,103.55,,98.4530364002787,114.4131849109874,2.8388231044843795
66,112.7,114.1,112.7,113.45,155626,110.25,106.94,104.14,,98.1219705633912,115.33822606728097,2.7810500255926383
67,113.5,113.5,111.015,112.21,138958,111.04,107.31,104.63,,98.12612576132145,116.05999204371865,2.759903595193164
68,113.8,114.28,112.905,113.58,175360,111.99,107.72,105.09,,97.99622873884769,116.856680461687,2.710624766965082
69,112.82,114.0,112.29,113.54,194349,112.43,108.01,105.44,,97.91082073466302,117.50015938225451,2.6391515693247185
70,112.78,113.45,111.91,112.475,247902,112.42,108.32,105.81,,97.93434526833681,118.00911065833576,2.5670693143729535
71,113.0,113.0,110.82,111.67,310216,112.43,108.71,106.04,,98.28216906116583,118.4007549199082,2.5394215062034573
72,110.0,110.61,104.21,104.32,276051,111.64,108.81,106.13,,98.68631446170998,118.29790406061117,2.8908913986174967
73,106.69,107.53,104.74,106.02,58088,111.04,108.99,106.33,,99.7794905016641,117.92455468587443,2.9136848701448193
74,103.44,106.54,103.065,105.41,195172,110.3,109.18,106.51,,100.45000849413128,117.33242011126256,2.9537788079916187
75,108.3,109.09,106.86,107.39,188571,109.62,109.34,106.78,,101.00625181363138,117.1274459544436,3.005651750277932
76,108.19,108.65,106.37,106.94,152749,109.04,109.51,106.9,,101.50791773569473,116.95108637434869,2.953819482400937
77,106.28,107.97,105.97,107.1,136329,108.32,109.64,107.02,,101.80354729307338,116.73745136135904,2.8856895193722987
78,107.21,107.99,106.1,107.63,205760,107.66,109.77,107.09,,102.05995237555639,116.52011405305211,2.814568839417135
79,106.94,107.67,105.5,107.55,177875,107.11,109.9,107.09,,102.38650572555791,116.21705386845306,2.768528208030197
80,108.46,108.46,106.92,107.49,177306,106.65,109.79,107.19,,102.40212726700555,116.24518286928621,2.680776193170897
81,106.58,107.52,105.85,105.93,393235,106.83,109.46,107.24,,102.10480005641641,116.13349973467103,2.60857789365869
82,105.41,107.63,103.78,107.58,230861,107.0,109.26,107.37,,101.52987071074946,115.86080483010238,2.6972509012544976
83,107.12,108.69,106.17,107.7,316312,107.26,109.07,107.49,,101.34333947129741,115.7419942735986,2.684590122593462
84,108.24,110.19,107.89,109.28,141427,107.47,108.97,107.62,,101.32810606577969,115.60372153532158,2.6706908281225004
85,109.13,112.28,109.13,111.84,302554,108.01,108.96,107.71,,101.37326460940182,115.57791705523012,2.7049271975423226
86,111.91,112.665,110.95,112.52,196549,108.61,108.91,107.84,,101.53237965741677,115.32126965449748,2.6342181120035852
87,113.44,115.01,113.44,114.97,213218,109.43,109.05,108.02,,101.28386981667957,115.64189140983116,2.623916818289044
88,115.99,116.66,114.18,115.25,212956,110.28,109.13,108.22,,101.11226249952024,116.22143938561862,2.613637045554112
89,114.64,116.0,114.18,115.09,280935,111.13,109.21,108.44,,100.89428234793495,116.64364782932707,2.5569486851573893
90,114.79,115.75,112.59,112.93,160006,111.91,109.23,108.44,,100.84034950687094,117.07255665962406,2.6000237790747187
91,113.16,114.14,111.405,113.83,272403,112.6,109.34,108.5,,100.81492381343489,117.23978787987289,2.609664937712239
92,114.17,115.17,112.395,115.06,190934,113.42,109.88,108.59,,101.19222252273346,117.77973304482086,2.621474585018508
93,114.96,116.265,113.27,113.43,182870,113.88,110.25,108.72,,101.51507893312238,118.44878612282702,2.6481549718029007
94,113.76,116.5,113.69,116.34,156651,114.38,110.79,108.93,,102.26098920350057,118.96242640346779,2.6782867595312645
95,117.44,118.29,116.54,117.98,269467,114.99,111.32,109.15,,102.15673619038591,119.87466027958705,2.6262662767076033
96,118.04,118.49,116.8,117.365,190651,115.25,111.84,109.39,,102.25740587600416,120.6698280527638,2.5593901140856317
97,118.0,119.71,117.34,119.46,198097,115.72,112.46,109.68,,102.52539921761662,121.52399179023317,2.5458622487938003
98,119.4,119.75,118.27,119.27,155570,116.18,113.04,109.95,,102.84101778786565,122.2078336483328,2.4697292310228147
99,119.58,119.87,117.67,118.2,341875,116.77,113.58,110.17,,103.51884347691859,122.70127773552889,2.4504628573783283
100,118.25,118.98,117.41,118.475,347333,117.29,114.12,110.41,,104.10006178729556,122.95567239500991,2.387572653279877
101,118.39,119.23,118.09,118.39,163018,117.66,114.75,110.7,,105.01389198245835,122.9320963099457,2.298460320902743
102,119.0,119.785,118.38,118.84,225895,118.26,115.31,111.03,,106.75430320712846,122.7471300691777,2.234641726552547
103,118.83,120.45,118.5,119.85,254417,118.65,115.92,111.38,,108.11305759669538,122.57798858187569,2.214310174655937
104,119.81,119.81,117.78,118.02,298483,118.65,116.36,111.71,,109.29069078128258,122.31545232938635,2.204002305037655
105,118.72,119.41,117.33,118.75,421108,118.81,116.7,112.0,,110.35414990368297,122.18301929569448,2.1951449975349657
106,117.75,118.91,116.7,117.85,635354,118.63,116.97,112.28,,111.09064025280912,121.89221028951836,2.1962060691396106
107,115.0,117.9,111.22,115.1,1073859,118.16,116.97,112.5,,110.65221844931112,121.7963276673348,2.5164770642010676
108,116.85,119.68,114.85,118.79,406742,118.23,117.15,112.77,,110.71913292373192,121.95428581844472,2.6817287024724212
109,118.95,120.18,118.22,118.7,402336,118.25,117.33,113.05,,110.8571746350673,122.11153375920354,2.6301766522958205
110,119.56,120.67,118.22,118.36,278050,118.25,117.6,113.22,,111.29511803918017,122.26492413009807,2.617306891417548
111,118.82,120.11,116.68,117.66,442958,118.12,117.79,113.32,,112.10845928632709,121.91885585066544,2.6753563991734373
112,117.07,119.37,116.78,119.32,343779,118.06,118.01,113.48,,112.77171228455227,121.53356302411315,2.669259513518192
113,118.74,118.74,116.9,117.0,318656,117.95,118.19,113.59,,113.29887212613224,121.24002663387517,2.651455262552606
114,118.02,119.35,116.53,116.66,271045,117.72,118.2,113.69,,113.76172387416611,120.87306265010567,2.6634941723702767
115,116.92,118.57,116.75,118.1,305677,117.74,118.21,113.81,,113.77727309865253,120.84501797982787,2.609673160058114
116,117.24,119.47,117.24,118.53,138696,118.12,118.27,113.91,,113.79961580249419,120.81923206453271,2.582553648625392
117,117.88,119.635,117.7,118.4,105751,118.08,118.21,114.04,,113.80669823157119,120.81336482561417,2.5362998165807213
118,119.14,119.92,118.01,118.24,259074,118.03,118.16,114.13,,113.81200767680325,120.83097823830697,2.491564115396384
119,117.91,118.64,116.77,117.87,283443,117.98,118.15,114.22,,113.77841614272005,120.81096630558201,2.4471666785823567
120,118.7,119.37,117.32,117.75,225856,117.99,118.11,114.32,,113.77605715415528,120.81387552875707,2.418797630112189
121,117.06,118.125,116.6,117.47,247441,117.78,118.06,114.44,,113.73913182954824,120.88265205145098,2.354954942247033
122,117.12,118.35,116.4,117.8,280336,117.87,118.01,114.71,,113.70833173843758,120.87127449470223,2.326029589229387
123,118.2,119.76,118.2,119.18,409160,118.15,117.98,114.97,,113.72454345270233,120.7603449050137,2.299884618570146
124,119.54,119.54,117.93,118.13,179243,118.15,117.98,115.23,,113.72140483622404,120.73186594148535,2.250607145815135
125,117.99,119.0,117.56,118.59,172110,118.16,117.98,115.45,,113.72319626471597,120.71552105610563,2.192706635399768
126,118.63,120.62,118.5,120.05,373349,118.34,118.08,115.71,,113.725843501948,120.91046214477055,2.187513304299785
127,119.7,119.7,118.0,118.2,531281,118.34,118.24,115.94,,115.49142615272004,120.84857897784998,2.177690925421229
128,118.58,119.16,117.78,118.3,229582,118.39,118.22,116.15,,116.03809904166233,120.82312290749238,2.1207130021768554
129,117.94,119.64,117.94,119.48,210542,118.58,118.25,116.39,,116.05386675896065,120.75440014549272,2.0906620734499373
130,119.75,122.44,118.97,122.15,234496,119.1,118.44,116.68,,115.95795381383019,121.33360004829463,2.189186211060656
131,122.28,122.28,118.5,119.17,400403,119.25,118.52,116.95,,116.01889614394666,121.81425747864486,2.3028157674134664
132,120.04,120.3,116.49,118.71,347666,119.2,118.49,117.17,,115.9691279381141,121.880662333325,2.4104717840267904
133,118.13,118.13,116.04,116.07,270480,118.97,118.44,117.34,,115.81099098760451,121.91654234173507,2.4290095137391616
134,116.64,118.63,116.64,117.89,226192,118.89,118.5,117.51,,115.82887398466909,121.91896027455573,2.438365977043507
135,118.31,118.91,116.71,117.19,437229,118.57,118.46,117.61,,115.82309481650807,121.91051903777736,2.4213398358261142
136,117.88,118.71,117.13,118.38,172654,118.59,118.45,117.73,,115.81368904967513,121.904715255353,2.361244133267106
137,119.37,120.06,118.47,119.0,205667,118.67,118.48,117.81,,115.79352168808512,121.93707260299034,2.312583838033742
138,119.44,119.8,118.12,118.3,99643,118.54,118.48,117.87,,115.79137266828697,121.92788971278755,2.2673992781741887
139,119.4813,119.4813,117.57,117.77,128827,118.05,118.48,117.93,,115.86650676334452,121.93086780117216,2.241963615447462
140,116.5,117.24,115.08,115.95,242250,117.7,118.39,117.99,,115.42485551099307,122.05221538862666,2.273966214344072
141,116.58,116.75,114.23,115.07,258112,117.29,118.27,118.01,,114.86764694186175,122.202835579193,2.291540056176638
142,113.6,114.04,111.82,113.45,124041,117.0,118.05,117.98,,113.62919465092482,122.86773249941663,2.3600014807354497
143,113.56,114.67,113.56,114.34,160038,116.61,117.81,118.0,,113.1021615473395,123.12449425806383,2.2785728035400608
144,113.68,114.53,111.71,112.12,124889,116.04,117.51,117.91,,112.18488439571524,123.3056795767656,2.317246174715771
145,111.9,113.17,111.16,112.27,184050,115.36,117.19,117.8,,111.27915759905399,123.63253050612009,2.295300019378931
146,111.46,112.58,111.46,112.08,213876,114.59,116.79,117.69,,110.61745827148692,123.72946376383317,2.211350017994722
147,113.17,114.22,112.04,112.48,185780,113.95,116.51,117.55,,110.15479079934485,123.63699458754579,2.2091107309950986
148,112.06,113.35,111.745,112.6,398757,113.37,116.22,117.42,,109.70091256032345,123.61741913699785,2.1659599644954484
149,113.27,113.935,112.5,113.14,225601,113.06,115.91,117.32,,109.44678347148108,123.43187988860521,2.1137485384600594
150,113.45,114.97,113.14,113.71,233473,112.91,115.48,117.22,,109.42811768098281,122.60823685494975,2.0934807857129125
151,112.31,114.175,112.31,112.91,196092,112.85,115.17,117.11,,109.33387810428508,121.69977400484039,2.0771607295905614
152,113.36,114.93,113.21,114.6,193050,112.88,114.97,117.03,,109.24349161106635,121.13228827974413,2.0730778203340936
153,115.01,115.9,113.92,114.51,264793,113.14,114.89,116.92,,109.20965203735207,120.93047409232388,2.0664294045959446
154,115.09,116.17,114.5,114.98,142327,113.45,114.74,116.86,,109.24182030677771,120.65168596519135,2.038113018553377
155,115.8,116.79,115.52,116.52,222482,113.94,114.71,116.82,,109.29511206064598,120.35253393715948,2.0218192315138506
156,118.12,118.39,116.185,116.85,233329,114.42,114.63,116.8,,109.3654101267088,120.29538281790808,2.034903572120004
157,117.05,118.825,116.7,118.06,206674,115.03,114.59,116.86,,109.59244361095327,120.0154873658773,2.0413390312542896
158,117.73,118.91,117.25,117.67,241328,115.53,114.55,116.83,,109.720480684516,119.80823694083654,2.01410052902184
159,117.5,118.03,116.04,116.45,133934,115.84,114.49,116.79,,109.89470858916917,119.49804219576535,2.012379062663137
160,114.72,116.59,114.22,116.34,200605,116.22,114.51,116.75,,109.89797406193843,119.41803168561324,2.0379234153300563
161,116.71,117.23,116.19,116.27,95791,116.41,114.57,116.72,,109.83493846284665,119.47922142885139,1.96664317137791
162,116.64,116.64,114.58,115.19,124662,116.48,114.65,116.64,,110.06705785394828,119.56765695802046,1.973311516279488
163,116.05,117.56,115.22,117.0,295091,116.71,114.79,116.64,,110.10907871703061,119.76566889740118,2.0016464079738108
164,117.27,118.76,117.27,117.75,172974,116.84,115.07,116.66,,110.27647239049367,120.13185376541064,1.984385950261396
165,117.89,118.475,116.745,118.31,203380,117.0,115.37,116.66,,110.6894174248593,120.29543759387309,1.9662155252427242
166,118.75,118.97,117.48,118.35,130916,117.04,115.68,116.66,,111.06281935185592,120.36819677364524,1.9322001305825294
167,117.35,117.49,115.93,117.39,169533,117.01,115.93,116.64,,111.46945691191742,120.36781882556548,1.967042978398062
168,117.17,117.19,115.61,115.65,187119,116.92,116.08,116.59,,112.01129595370563,120.16840479050015,1.9536827656553435
169,114.11,114.61,112.25,112.34,255596,116.47,116.04,116.48,,111.95255389899151,120.07688658378908,2.056991139537105
170,112.3,113.1,110.3445,112.9,366544,116.1,116.0,116.38,,111.24784573435903,120.34314842988981,2.106884629570169
171,116.25,116.76,113.54,114.14,510820,115.98,116.06,116.32,,111.45981842062915,120.21783254965273,2.2321071560294428
172,115.17,118.29,114.67,118.19,360554,116.11,116.24,116.32,,111.63731100119796,120.2622157331197,2.36909950202734
173,118.5,121.46,118.329,119.57,378381,116.32,116.5,116.33,,111.65404985618584,121.00911971710828,2.4334495375968155
174,120.0,120.02,118.1,119.05,241867,116.4,116.7,116.35,,111.68030139418798,121.3126704067586,2.396774570625615
175,120.61,123.1,120.43,122.81,297596,116.89,117.01,116.43,,111.3741732932923,122.3272533683248,2.514862101295214
176,123.59,124.61,122.47,123.6,332389,117.58,117.35,116.5,,110.79756587755446,123.55202692056469,2.4880862369169847
177,127.62,128.86,122.11,123.18,556380,118.42,117.61,116.6,,110.44637799493667,125.86742462682254,2.7925086485657724
178,123.39,128.8,122.9466,127.63,511397,120.12,118.11,116.79,,110.06445407557868,127.65616063515627,3.0111437450967893
179,127.75,127.75,124.365,125.2,320980,121.49,118.54,116.9,,109.6693509060486,128.92133794712862,3.037847763304162
180,124.24,125.21,122.59,124.18,139680,122.6,118.93,116.95,,109.84284947155797,129.52430630370839,3.008001494496721
181,124.1,126.0,124.1,124.73,115844,123.33,119.36,117.06,,109.73895062904244,130.18914312584727,2.928858530604099
182,126.28,127.0,125.57,126.74,321922,124.12,119.94,117.22,,109.78396521120867,130.9065487415011,2.8817972069895204
183,126.26,128.1,125.7,127.45,270075,125.06,120.46,117.44,,109.88925810709522,131.74092052423288,2.8473831207759828
184,127.43,127.86,125.97,126.38,253527,125.45,120.89,117.61,,109.8600293837907,132.45185003487714,2.778998612149127
185,126.7,127.615,126.0,127.22,350079,125.86,121.34,117.82,,109.98800915144463,133.02692249151175,2.695855854138475
186,127.51,128.36,127.19,127.79,305291,126.37,121.81,118.0,,110.03730605408147,133.6457930638725,2.586866150271442
187,128.06,129.12,126.4024,126.87,217443,126.28,122.28,118.16,,110.45653682645234,134.2051943379971,2.5962042823949107
188,128.16,128.47,126.875,127.88,409401,126.58,122.89,118.35,,111.01379046891057,134.50785093016782,2.525046833652417
189,128.48,128.48,125.77,126.36,204976,126.82,123.59,118.52,,112.48726632555478,134.29041884263006,2.538257774105815
190,126.55,127.3,126.08,126.91,78170,127.07,124.29,118.74,,114.89980572753699,133.19244242695015,2.4440965045268284
191,126.79,126.93,125.685,126.32,122607,127.02,124.9,118.97,,116.76320775331867,132.43943621632062,2.358446754203484
192,127.15,128.58,126.42,127.81,110298,127.06,125.38,119.26,,118.68770254649459,131.81898846930193,2.3514148431889508
193,127.36,128.05,125.72,126.26,98417,127.05,125.72,119.49,,119.76157297494146,131.5488533309195,2.349885211532598
194,126.07,127.11,125.15,125.87,76735,126.9,126.06,119.77,,121.19526242312544,130.49235303972384,2.322036267851698
195,125.48,127.8,125.48,127.73,121048,126.89,126.31,120.08,,122.09638288155467,129.9994307263923,2.3218908201480044
196,127.99,128.99,127.64,128.55,82506,127.08,126.55,120.41,,122.42896939160106,129.83872954472838,2.2524700472802905
197,128.29,130.9,127.9381,129.09,132518,127.21,126.85,120.74,,122.93991524386054,130.3305169227922,2.3031436153316984
198,129.13,130.18,128.66,129.53,112044,127.56,126.94,121.08,,123.23400130994239,130.57792214021805,2.2472047856651494
199,129.47,131.09,129.02,130.47,194405,127.96,127.21,121.43,112.55,123.25572624392494,131.08800071216226,2.234547300974781
200,129.59,131.1,129.59,130.46,133337,128.42,127.52,121.76,112.69,123.75107254730575,131.31854956342252,2.1827939223337247
201,131.05,131.99,128.2,128.41,145900,128.49,127.7,122.07,112.82,124.11505630949094,131.78621098128002,2.297594356452746
202,128.56,130.65,128.31,130.34,119406,128.94,127.88,122.38,112.95,124.22627547180704,131.9642769213538,2.300623330991836
203,130.99,131.7399,130.2,131.11,214561,129.52,128.07,122.72,113.07,124.13328434420484,132.3647558262925,2.2462859502067065
204,131.29,133.69,131.0,133.13,244429,130.12,128.41,123.08,113.22,123.97154121250274,133.18498610197832,2.2779798109062277
205,134.0,134.67,133.64,134.55,333405,130.79,128.77,123.44,113.35,123.4121740271803,134.10764055785475,2.225266967270068
206,132.78,135.0,131.5,134.84,142041,131.43,129.12,123.8,113.52,123.3266136677223,134.97111895953654,2.3163193267507776
207,134.65,136.22,134.01,134.73,183236,132.0,129.52,124.13,113.68,123.04548980755376,136.01315140625016,2.3087250891257227
208,134.52,135.75,134.45,134.52,146110,132.45,129.85,124.47,113.85,122.81824190683851,136.7710090269967,2.236673297045315
209,135.0,136.37,134.65,135.7,72391,133.04,130.32,124.86,114.06,122.8745253809933,137.548079366337,2.209053775827792
210,136.19,137.14,135.055,135.67,74962,133.84,130.75,125.24,114.26,122.9795568883619,138.28630475609384,2.200192791840091
211,136.27,136.75,134.8387,135.24,61926,134.39,131.2,125.62,114.49,123.31720721601047,138.74490840833118,2.179557592422943
212,135.91,137.36,135.456,136.38,70210,134.97,131.63,126.05,114.69,123.59155962759661,139.34048245182154,2.1753034786784475
213,136.77,137.32,135.61,136.97,106212,135.4,132.16,126.44,114.89,124.11845768400855,139.75313390435684,2.1420675159157
214,135.92,137.97,133.68,134.05,281139,135.34,132.57,126.77,115.07,125.03547940439482,140.00762255190628,2.295491264778864
215,134.13,135.29,133.54,133.79,157556,135.23,132.88,127.08,115.28,126.03179160134778,139.79162306832336,2.256527603008945
216,134.22,137.97,134.22,137.72,224162,135.56,133.33,127.47,115.55,126.62487711538544,139.98899177106605,2.3939184885083065
217,137.52,140.0,136.505,139.7,138122,136.14,133.87,127.91,115.8,127.10904062229649,140.70288648771012,2.4725671679005705
218,139.57,140.62,137.755,139.05,100596,136.51,134.34,128.38,116.05,127.43524907803761,141.3102334111006,2.500598084479102
219,139.5,139.87,138.38,138.71,82840,136.85,134.75,128.91,116.26,127.76331247788072,141.6942397834085,2.42841250701631
220,138.81,139.23,137.09,138.07,314837,137.16,135.13,129.41,116.48,128.24248300357903,141.82616689950336,2.407811613658001
221,137.95,139.58,136.14,138.54,380068,137.4,135.64,129.9,116.67,129.24223678071712,142.00474727427883,2.4815393555395744
222,138.5,140.71,137.52,139.28,156386,137.66,136.09,130.32,116.87,130.365797515719,141.9954533292767,2.5321436872867475
223,139.04,141.33,138.37,138.83,128710,138.19,136.47,130.71,117.08,131.04943950195596,142.09793914727408,2.562704852480552
224,139.58,140.62,137.25,137.25,178198,138.57,136.68,131.07,117.29,131.76538423194634,142.22274771172042,2.6203687915890845
225,137.73,140.75,137.49,140.62,193695,138.89,136.98,131.43,117.52,131.96098910063188,142.39454506121152,2.6831995921898644
226,140.27,141.125,138.01,138.01,176250,138.71,137.14,131.72,117.71,132.7103504655896,142.5785382448296,2.7140424784620176
227,137.86,138.38,137.11,138.19,182594,138.61,137.31,132.02,117.89,132.96984057913124,142.52884679984268,2.610896587143301
228,138.16,139.92,137.85,139.57,156963,138.71,137.57,132.26,118.07,133.16034698214216,142.506179325544,2.5722611166330647
229,139.43,140.0,137.08,138.8,99822,138.79,137.72,132.53,118.23,133.36731507353548,142.50848559011268,2.597099608302131
230,137.53,137.53,133.15,133.25,140782,138.2,137.6,132.71,118.38,132.98620301511562,142.4850837432223,2.815163921994836
231,134.08,135.8,133.6064,135.03,121293,137.73,137.59,132.91,118.54,132.7665312481453,142.60089393668676,2.7962236418523485
232,134.43,135.36,131.82,132.95,183439,137.07,137.42,133.04,118.7,132.06641229869368,142.80476201221973,2.8493505245771824
233,134.13,134.39,131.805,134.06,153040,136.72,137.27,133.17,118.86,131.4424302377775,143.11945897792967,2.830468344250239
234,135.05,138.12,134.74,136.93,148301,136.31,137.42,133.38,119.03,131.58278451491336,143.12121579669582,2.918292033946651
235,136.16,137.3,135.385,136.55,103517,136.15,137.56,133.57,119.18,131.81490283486107,142.95876739085492,2.8466283172361773
236,136.12,138.4,135.0,137.9,208557,136.12,137.56,133.77,119.34,131.9112298756022,142.96324306106177,2.8861548660050222
237,139.46,140.73,138.715,140.56,129043,136.23,137.61,134.04,119.51,131.8635514033235,143.05283552946239,2.88214380414752
238,141.25,142.0,140.53,141.99,130728,136.58,137.75,134.33,119.69,131.6338136257602,143.28216043193748,2.781276389565554
239,141.96,142.89,141.22,142.15,143136,137.57,137.93,134.64,119.88,131.3657134834908,143.75879106094735,2.701899504596585
240,143.0,144.105,142.505,143.14,95024,138.47,138.18,134.97,120.04,130.97489720600504,144.50226669436478,2.6485495399825423
241,143.5,144.32,142.06,142.97,121109,139.58,138.4,135.3,120.19,130.8178207290354,145.18937950843775,2.62079600141236
242,142.38,144.76,142.38,144.5,83893,140.74,138.66,135.63,120.37,130.62260849448137,145.83083905590956,2.6035962870257623
243,144.61,144.72,142.9,143.67,140786,141.49,138.9,135.98,120.55,130.40456633848237,146.35603279536627,2.5476251236667786
244,143.75,144.175,142.445,143.11,164136,142.22,139.2,136.33,120.73,130.3361577970798,146.79556154461366,2.4892233291191532
245,142.62,143.18,141.3,141.3,153615,142.6,139.23,136.6,120.91,130.36593595257455,147.0457452774842,2.4457073770392133
246,138.57,138.57,131.61,132.25,425165,141.68,138.94,136.67,121.04,129.53066559890476,146.9540133790883,2.9631568501078407
247,131.25,131.37,127.5,129.25,297300,140.26,138.5,136.68,121.16,127.86376463493393,147.6585392113242,3.0907885036715665
248,127.82,128.72,126.78,128.33,372420,138.72,137.93,136.65,121.28,126.22561106989718,148.56231179697212,3.046446467695026
249,128.26,129.04,127.8,128.76,174301,137.13,137.43,136.62,121.38,125.04358134983364,149.08316536516486,2.9174145771453808
250,128.77,130.91,128.77,130.25,337684,135.71,137.28,136.61,121.5,124.4099408266742,149.32928756014203,2.8625992502064252
251,131.06,131.57,129.555,130.25,318159,134.13,137.04,136.65,121.63,123.89641313955025,149.491924456803,2.8020564466202513
252,130.78,132.0,129.875,130.62,251943,132.68,136.93,136.66,121.77,123.63284097835147,149.60115555862507,2.753695271861662
253,130.44,130.6646,129.47,130.35,289663,131.26,136.74,136.64,121.91,123.31526474677985,149.7791386810919,2.6423313238715442
254,130.37,132.18,129.5037,131.125,162486,130.13,136.45,136.6,122.06,122.7613699863373,149.7500685242238,2.6447576578807195
255,130.89,131.9,130.125,130.4,451773,129.93,136.14,136.52,122.19,122.28945314562813,149.74301425100336,2.58263211088924
256,131.14,134.14,130.41,134.09,151814,130.46,135.95,136.5,122.35,121.89513111732641,149.5971876395239,2.665301245825721
257,134.83,138.48,134.1,137.72,197644,131.51,135.81,136.56,122.51,121.79711258125394,149.3871438542037,2.7884940139810257
258,138.68,140.67,137.68,137.69,207520,132.5,135.6,136.63,122.68,121.8746866797593,149.22128239405833,2.8028872986966653
259,138.21,140.12,137.935,139.31,124384,133.51,135.45,136.7,122.85,122.0043368217641,148.8600738928219,2.776252491646904
260,139.19,140.415,138.74,139.4,143067,134.52,135.27,136.77,123.0,122.24359398497586,148.31174706916337,2.69759159938641
261,140.0,141.24,139.2648,140.95,155792,135.67,135.17,136.89,123.14,122.4419798138586,147.80592292337118,2.6459921994302382
262,141.78,143.03,141.015,142.12,327875,136.98,135.05,137.0,123.29,122.57155170485667,147.47656699046712,2.605564185185222
263,141.71,142.1,139.3316,140.6,224436,138.03,134.89,137.07,123.44,122.895456251099,146.98662572561295,2.6186238862434204
264,139.91,141.74,139.376,141.19,136735,139.23,134.8,137.22,123.59,123.19111539864294,146.53623249890686,2.600436465797462
265,141.34,142.47,140.94,141.52,143396,140.06,134.81,137.37,123.73,123.22926535991252,146.40371801401093,2.5239767182405006
266,142.06,142.33,139.04,139.31,270268,140.23,135.16,137.4,123.86,123.35218746561135,146.91513088120533,2.5786926669376093
267,138.97,141.86,138.26,141.59,206875,140.67,135.78,137.44,124.01,124.16309475498578,147.4599687316029,2.651643190727782
268,140.53,142.56,140.16,140.84,242331,140.84,136.4,137.48,124.15,125.1858044760928,147.73889092319828,2.633668677104369
269,141.59,144.33,141.16,141.88,263235,141.11,137.06,137.54,124.29,126.11968249526774,148.13038035110583,2.6948352001683435
270,141.4,143.23,140.45,142.55,199934,141.29,137.68,137.63,124.44,127.07327911434845,148.35229940346528,2.7009184001563193
271,143.0,144.82,142.19,144.81,225101,141.59,138.4,137.76,124.6,127.92718010317031,148.72023198726671,2.6958528001451536
272,144.24,145.9,143.39,144.77,217175,142.05,139.11,137.87,124.81,128.81240949762565,149.12079906355115,2.682577600134787
273,144.33,144.41,142.6,142.995,204007,142.25,139.74,137.95,124.99,130.09321186048172,148.76830642563758,2.645964914410875
274,143.03,143.47,141.23,141.71,303310,142.27,140.27,138.04,125.17,131.7121203939031,148.24512855432775,2.6169674205243845
275,142.77,143.98,141.38,143.88,192942,142.78,140.95,138.1,125.35,133.50582442820104,147.2207250468958,2.6157554619154997
276,144.95,144.95,143.34,144.51,155880,143.1,141.47,138.23,125.54,135.66971607532403,146.3315314468388,2.5439157860643915
277,144.04,145.99,143.32,145.99,148765,143.68,141.88,138.39,125.74,136.9024078412531,146.46223225389895,2.5529218013455073
278,145.28,145.5,143.38,143.61,157178,143.87,142.18,138.47,125.92,137.23810707140683,146.69890973237816,2.5569988155351147
279,143.8,143.96,142.19,143.76,117661,144.0,142.4,138.57,126.1,137.67486708556083,146.5797569852533,2.5007846144254646
280,144.42,145.3,143.28,145.22,107668,144.05,142.69,138.81,126.29,137.94228837019213,146.59518108406021,2.466442856252218
