,o,h,l,c,v,sma9,sma20,sma50,sma200,lower,upper,atr
0,101.62,103.76,100.81,103.64,270090,,,,,,,2.950000000000003
1,103.79,105.72,102.2,102.75,276635,,,,,,,2.9907142857142883
2,105.39,107.63,104.44,107.36,199266,,,,,,,3.1256632653061245
3,105.34,105.8,102.65,103.98,236666,,,,,,,3.238830174927115
4,101.61,107.41,101.33,107.28,493180,,,,,,,3.4417708767180355
5,102.74,105.0,99.478,101.46,529389,,,,,,,3.753215814095319
6,103.6,103.99,99.385,103.91,415301,,,,,,,3.8140575416599383
7,101.67,101.67,97.92,99.05,639687,,,,,,,3.9694820029699422
8,92.48,96.4,87.5,94.4,788223,102.65,,,,,,4.510947574186375
9,98.08,99.44,91.12,96.42,476058,101.85,,,,,,4.783022747458776
10,87.4,94.48,87.4,87.87,573698,100.19,,,,,,5.085663979783149
11,89.95,96.95,89.48,96.45,533056,98.98,,,,,,5.370973695512924
12,91.69,96.98,90.34,96.74,614591,98.18,,,,,,5.461618431547715
13,96.49,101.22,93.59,98.64,299073,97.22,,,,,,5.6165028292943076
14,98.81,99.9825,89.13,92.4,709083,96.21,,,,,,5.990502627201857
15,92.06,93.24,79.84,83.86,642938,93.98,,,,,,6.519752439544581
16,87.27,88.32,82.69,88.06,495291,92.76,,,,,,6.456198693862825
17,89.0,93.66,86.22,90.17,524600,92.29,,,,,,6.526470215729765
18,90.85,97.34,90.216,96.2,355720,92.27,,,,,,6.572436628891925
19,94.54,95.84,92.1,93.89,435571,92.93,97.23,,,79.05147456965179,110.46638487646784,6.395834012542503
20,94.97,100.96,94.37,100.48,387313,93.38,97.07,,,79.14768986172166,110.17758934261744,6.443988725932323
21,100.52,102.75,97.44,99.54,465866,93.69,96.91,,,79.41322036407304,109.7470073011023,6.362989531222872
22,97.71,98.675,95.44,96.32,250269,93.44,96.36,,,80.04201867757746,108.55374111470917,6.20134742184981
23,95.81,97.14,94.12,96.14,391636,93.85,95.96,,,80.55599506427706,107.59429647158649,5.974108320289109
24,94.88,97.42,93.36,94.2,284999,95.0,95.31,,,81.01215333903721,106.08419483261972,5.8373862974113155
25,97.07,101.18,97.07,100.76,451661,96.41,95.28,,,81.22276918603161,105.36238245446562,5.919001561881936
26,103.55,103.55,99.22,101.12,290436,97.63,95.14,,,81.24132029988644,105.26697303161804,5.805501450318941
27,101.63,105.29,100.64,104.205,283995,98.52,95.39,,,80.94879528978339,105.99659079944752,5.722965632439017
28,105.04,108.03,104.23,107.43,353358,100.02,96.04,,,80.5670459291007,107.69484368785477,5.587396658693374
29,106.99,107.43,102.3,102.33,182696,100.23,96.34,,,80.35000151085508,108.91269755040923,5.554725468786705
30,104.56,105.3658,103.36,103.76,190351,100.7,97.13,,,80.62046838597573,109.60164400669366,5.374802221016226
31,102.28,104.19,100.61,100.82,386772,101.2,97.35,,,80.99822924873742,110.08784936668341,5.246602062372209
32,103.03,103.03,99.68,101.85,253933,101.83,97.61,,,81.39715256475331,110.38101593036585,5.11113048648848
33,103.86,105.02,102.4,102.85,216948,102.79,97.82,,,81.42906544268975,110.78891268268865,4.9724783088821605
34,101.86,107.94,101.13,106.94,774451,103.48,98.55,,,82.10101629367372,111.71334784118844,5.10372985824772
35,105.85,106.99,104.115,106.1,409805,104.03,99.66,,,85.08715213382479,112.11893687133932,4.944534868372884
36,106.99,107.035,104.12,106.54,328694,104.29,100.58,,,87.85175727713836,111.31747756782725,4.799568092060534
37,106.62,107.32,104.95,105.02,308738,104.02,101.32,,,90.0109103677377,111.22341897764014,4.62602751405621
38,105.41,105.41,103.09,104.37,263752,104.25,101.73,,,91.50888478245322,111.20661428481212,4.4613112630521945
39,109.33,114.1,106.88,112.56,415411,105.23,102.67,,,92.46643323736427,112.597966598223,4.83764617283418
40,112.6,114.66,110.99,111.18,246823,106.38,103.2,,,92.52669658714369,114.29077725252442,4.7542428747745955
41,112.56,113.63,109.82,110.11,202200,107.3,103.73,,,92.55007581119138,115.50780986243421,4.686796955147839
42,108.99,110.07,106.34,107.1,432210,107.77,104.27,,,93.41011660846705,115.68373297309603,4.621311458351565
43,110.56,110.56,104.71,106.14,472341,107.68,104.77,,,94.78892985018689,115.50071994021701,4.7090749256121684
44,105.53,107.325,105.08,106.82,286955,107.76,105.4,,,96.69868296395289,114.74262248913625,4.533069573782728
45,106.78,107.63,105.4,105.53,196363,107.65,105.64,,,97.79243300445206,114.45433693307918,4.368564604226819
46,106.77,107.05,104.76,104.88,209940,107.63,105.83,,,98.48107113414622,114.34776119072899,4.220095703924903
47,105.52,106.89,105.14,105.38,212534,107.74,105.89,,,98.95066294153582,114.33011930553668,4.062231725073125
48,106.98,107.985,106.56,107.67,236238,107.2,105.9,,,98.98916309257542,114.32783223219504,3.958143744710759
49,106.66,107.505,106.08,106.31,225764,106.66,106.1,101.38,,99.24646971103535,114.33029851408313,3.7889906200885624
50,106.43,106.43,103.85,103.85,160803,105.96,106.1,101.38,,99.29286342737431,114.30841907947428,3.7026341472250945
51,103.39,103.39,101.645,102.42,212336,105.44,106.18,101.38,,99.49274839073243,114.38099340816434,3.595660279566159
52,101.01,102.62,99.11,102.44,224926,105.03,106.21,101.28,,99.3437323687865,114.42994250635117,3.589541688168577
53,101.47,101.7,100.045,101.56,274689,104.45,106.15,101.23,,98.91484243859499,114.73782231484752,3.504217281870821
54,104.07,105.15,102.95,104.17,222330,104.3,106.01,101.17,,99.1875629088734,114.69912567816519,3.5103446188800485
55,103.79,105.7475,103.16,103.62,184618,104.16,105.88,101.21,,99.09969100113085,114.68422013077638,3.444427146102903
56,104.45,105.515,104.08,104.31,106886,104.04,105.77,101.22,,99.09674499713017,114.66666810490031,3.3337537785241236
57,104.44,105.71,104.44,105.13,135763,103.76,105.78,101.34,,99.07078298121789,114.63254817952414,3.1956285086295426
58,104.97,105.25,103.71,104.97,117911,103.61,105.81,101.55,,99.13248485846442,114.63448830508173,3.0773693294417184
59,107.34,110.19,106.78,109.59,289223,104.25,105.66,101.82,,99.13535928258658,113.86694436768342,3.2304143773387386
60,111.07,112.65,110.35,112.57,240395,105.37,105.73,102.31,,99.24855790276712,113.33987722663834,3.2182419218145433
61,113.33,113.33,110.94,111.59,195016,106.39,105.8,102.61,,99.06538402396923,113.25987177228686,3.159081784542076
62,111.1,111.53,109.71,111.44,132519,107.49,106.02,102.91,,98.84987990155524,113.5123365102488,3.0677187999319284
63,111.28,111.88,110.6,111.43,216057,108.29,106.28,103.16,,98.63829158432682,113.75135836344312,2.940024599936791
64,111.75,112.47,110.94,112.07,181986,109.23,106.55,103.56,,98.45303640027866,114.41318491098735,2.839308557084163
65,112.7,114.1,112.7,113.45,155626,110.25,106.94,104.15,,98.12197056339116,115.33822606728093,2.781500803006723
66,113.5,113.5,111.015,112.21,138958,111.04,107.31,104.63,,98.1261257613214,116.05999204371864,2.7603221742205286
67,113.8,114.28,112.905,113.58,175360,111.99,107.72,105.1,,97.99622873884765,116.85668046168696,2.7110134474904917
68,112.82,114.0,112.29,113.54,194349,112.43,108.01,105.45,,97.910820734663,117.50015938225451,2.6395124869554563
69,112.78,113.45,111.91,112.475,247902,112.42,108.32,105.82,,97.93434526833678,118.00911065833571,2.5674044521729242
70,113.0,113.0,110.82,111.67,310216,112.43,108.71,106.04,,98.28216906116579,118.40075491990815,2.5397327055891443
71,110.0,110.61,104.21,104.32,276051,111.64,108.81,106.14,,98.68631446170996,118.29790406061113,2.8911803694756344
72,106.69,107.53,104.74,106.02,58088,111.04,108.99,106.33,,99.77949050166406,117.92455468587438,2.9139532002273754
73,103.44,106.54,103.065,105.41,195172,110.3,109.18,106.52,,100.45000849413123,117.33242011126254,2.9540279716397064
74,108.3,109.09,106.86,107.39,188571,109.62,109.34,106.78,,101.00625181363134,117.12744595444353,3.005883116522585
75,108.19,108.65,106.37,106.94,152749,109.04,109.51,106.9,,101.50791773569468,116.95108637434866,2.9540343224852577
76,106.28,107.97,105.97,107.1,136329,108.32,109.64,107.02,,101.80354729307332,116.73745136135898,2.885889013736311
77,107.21,107.99,106.1,107.63,205760,107.66,109.77,107.09,,102.05995237555634,116.52011405305205,2.8147540841837175
78,106.94,107.67,105.5,107.55,177875,107.11,109.9,107.09,,102.38650572555785,116.21705386845301,2.768700221027738
79,108.46,108.46,106.92,107.49,177306,106.65,109.79,107.2,,102.4021272670055,116.24518286928618,2.6809359195257563
80,106.58,107.52,105.85,105.93,393235,106.83,109.46,107.24,,102.10480005641635,116.13349973467098,2.6087262109882023
81,105.41,107.63,103.78,107.58,230861,107.0,109.26,107.38,,101.5298707107494,115.86080483010235,2.6973886244890446
82,107.12,108.69,106.17,107.7,316312,107.26,109.07,107.49,,101.34333947129736,115.74199427359852,2.6847180084541127
83,108.24,110.19,107.89,109.28,141427,107.47,108.97,107.62,,101.32810606577966,115.60372153532151,2.6708095792788185
84,109.13,112.28,109.13,111.84,302554,108.01,108.96,107.72,,101.37326460940173,115.57791705523005,2.7050374664731893
85,111.91,112.665,110.95,112.52,196549,108.61,108.91,107.85,,101.53237965741671,115.32126965449743,2.6343205045822473
86,113.44,115.01,113.44,114.97,213218,109.43,109.05,108.02,,101.28386981667951,115.6418914098311,2.6240118971120876
87,115.99,116.66,114.18,115.25,212956,110.28,109.13,108.22,,101.11226249952018,116.22143938561857,2.613725333032652
88,114.64,116.0,114.18,115.09,280935,111.13,109.21,108.44,,100.89428234793489,116.64364782932701,2.5570306663874622
89,114.79,115.75,112.59,112.93,160006,111.91,109.23,108.44,,100.84034950687091,117.072556659624,2.6000999045026436
90,113.16,114.14,111.405,113.83,272403,112.6,109.34,108.5,,100.81492381343485,117.23978787987284,2.609735625609598
91,114.17,115.17,112.395,115.06,190934,113.42,109.88,108.59,,101.1922225227334,117.77973304482082,2.6215402237803413
92,114.96,116.265,113.27,113.43,182870,113.88,110.25,108.72,,101.51507893312234,118.44878612282697,2.648215922081746
93,113.76,116.5,113.69,116.34,156651,114.38,110.79,108.93,,102.26098920350054,118.96242640346773,2.6783433562187637
94,117.44,118.29,116.54,117.98,269467,114.99,111.32,109.15,,102.15673619038587,119.874660279587,2.626318830774567
95,118.04,118.49,116.8,117.21,215895,115.24,111.84,109.38,,102.25740587600411,120.66982805276376,2.559438914290669
96,118.0,119.71,117.34,119.46,198097,115.7,112.45,109.67,,102.52539921761658,121.52399179023314,2.555193277555621
97,119.4,119.75,118.27,119.27,159832,116.17,113.04,109.95,,102.84101778786561,122.20783364833275,2.47839375773022
98,119.58,119.87,117.67,118.2,341875,116.75,113.57,110.16,,103.51884347691855,122.70127773552885,2.458508489320919
99,118.25,118.98,117.41,118.475,347333,117.27,114.12,110.41,,104.10006178729552,122.95567239500987,2.395043597226568
100,118.39,119.23,118.09,118.39,249656,117.64,114.74,110.7,,105.0138919824583,122.93209630994566,2.305397625996099
101,119.34,119.785,118.38,118.84,205608,118.24,115.3,111.02,,106.75430320712843,122.74713006917764,2.2410835098535205
102,118.83,120.45,118.5,119.85,254417,118.63,115.91,111.37,,108.11305759669536,122.57798858187563,2.2202918305782693
103,119.81,119.81,117.78,118.02,302215,118.64,116.35,111.7,,109.29069078128248,122.31545232938632,2.209556699822678
104,118.72,119.41,117.33,118.75,421108,118.81,116.69,111.99,,110.3541499036829,122.18301929569441,2.200302649835344
105,117.75,118.91,116.7,117.85,635354,118.63,116.96,112.28,,111.09064025280905,121.89221028951825,2.2009953177042476
106,115.0,117.9,111.22,115.1,1068435,118.16,116.97,112.49,,110.65221844931102,121.7963276673347,2.5209242235825164
107,116.85,119.68,114.85,118.79,488332,118.23,117.14,112.77,,110.71913292373185,121.95428581844462,2.6858582076123376
108,118.95,120.18,118.22,118.7,402336,118.25,117.32,113.04,,110.85717463506722,122.11153375920344,2.6340111927828858
109,119.56,120.67,118.22,118.36,278050,118.25,117.6,113.22,,111.2951180391801,122.26492413009797,2.620867536155537
110,118.82,120.11,116.68,117.66,443422,118.12,117.79,113.32,,112.108459286327,121.91885585066532,2.678662712144427
111,117.07,119.37,116.78,119.32,343779,118.06,118.0,113.47,,112.77171228455217,121.53356302411301,2.6723296612769682
112,119.58,119.58,116.9,117.0,331800,117.95,118.18,113.58,,113.29887212613214,121.26811205994262,2.672877542614327
113,118.02,119.35,116.53,116.66,270787,117.72,118.19,113.69,,113.761723874166,120.87830441368924,2.6833862895704463
114,116.92,118.57,116.75,118.1,305677,117.74,118.2,113.81,,113.77727309865243,120.84729972177388,2.628144411743986
115,119.14,119.92,118.01,118.24,259074,118.09,118.25,113.91,,113.81011030656461,120.8456145403207,2.5768483823337007
116,117.91,118.64,116.77,117.87,283443,117.99,118.17,114.02,,113.78116098710291,120.8537973353164,2.526359212167008
117,118.7,119.37,117.32,117.75,225856,117.88,118.1,114.1,,113.78080923555214,120.83115075325153,2.49233355415508
118,117.06,118.125,116.6,117.47,247441,117.79,118.06,114.18,,113.73824273015629,120.86143536305842,2.4232383002868603
119,117.12,118.35,116.4,117.8,280336,117.8,118.03,114.29,,113.68630400859334,120.89407232567969,2.3894355645520835
120,118.92,119.76,118.53,119.18,367122,117.79,118.07,114.44,,113.66829024849159,120.92869806011711,2.3587615956555066
121,119.54,119.54,117.93,118.13,179243,117.91,118.03,114.71,,113.68216137321815,120.90727378773163,2.305278624537256
122,117.99,119.0,117.56,118.59,172110,118.13,117.97,114.97,,113.70681479146178,120.75731592455632,2.2434730084988805
123,118.63,120.62,118.5,120.05,373349,118.34,118.07,115.26,,113.68232499349327,120.89845193558857,2.234653507891818
124,119.7,119.7,118.0,118.2,531681,118.34,118.04,115.47,,113.68265361932143,120.92063501344583,2.221463971613831
125,118.58,119.16,117.78,118.3,229582,118.39,118.06,115.7,,113.71640638298331,120.92162334792802,2.161359402212843
126,117.94,119.64,117.94,119.48,210542,118.58,118.28,115.95,,115.47618760356201,120.84471293204983,2.1284051591976403
127,119.75,122.44,118.97,122.15,234496,119.1,118.45,116.24,,115.93928715624185,121.52050593160291,2.2242333621120944
128,122.28,122.28,118.5,119.17,400403,119.25,118.47,116.47,,115.92249475645292,121.95936394348786,2.3353595505326594
129,120.04,120.3,116.49,118.71,347666,119.2,118.49,116.7,,115.80570269539469,121.91353397209485,2.4406910112088984
130,118.13,118.13,116.04,116.07,270480,118.97,118.41,116.9,,115.68801906267204,121.91033558717571,2.4570702246939766
131,116.64,118.63,116.64,117.89,226192,118.89,118.34,117.11,,115.66908805949193,121.91157960566309,2.46442235150155
132,118.31,118.91,116.71,117.19,437229,118.57,118.35,117.3,,115.64588060696522,121.8955838411231,2.445535040680011
133,117.88,118.71,117.13,118.38,172654,118.59,118.44,117.48,,115.71845198590046,121.8904351543933,2.383711109202867
134,119.37,120.06,118.47,119.0,205317,118.67,118.48,117.62,,115.7753716641891,121.9370726029902,2.3334460299740916
135,119.44,119.8,118.12,118.3,99643,118.54,118.48,117.74,,115.77359316248916,121.9278897127874,2.2867713135473706
136,119.4813,119.4813,117.57,117.77,128827,118.05,118.48,117.79,,115.84964762017961,121.93086780117201,2.259951934008274
137,116.5,117.24,115.08,115.95,242250,117.7,118.39,117.81,,115.40957336215058,122.05221538862654,2.290669653007683
138,116.58,116.75,114.23,115.07,258112,117.29,118.27,117.81,,114.85467113829336,122.2028355791929,2.3070503920785623
139,113.6,114.04,111.82,113.45,124041,117.0,118.05,117.82,,113.62019465949356,122.86773249941653,2.3744039355015225
140,113.56,114.67,113.56,114.34,159938,116.61,117.81,117.83,,113.10216154733936,123.12449425806372,2.291946511537128
141,113.68,114.53,111.71,112.12,124889,116.04,117.51,117.77,,112.18488439571506,123.30567957676553,2.3296646178559053
142,111.9,113.17,111.16,112.27,184050,115.36,117.19,117.74,,111.27915759905383,123.63253050612002,2.3068314308661986
143,111.46,112.58,111.46,112.08,213876,114.59,116.79,117.66,,110.61745827148673,123.72946376383312,2.2220577572328994
144,113.17,114.22,112.04,112.48,185780,113.95,116.51,117.55,,110.15479079934467,123.63699458754571,2.2190536317162635
145,112.06,113.35,111.745,112.6,398337,113.37,116.22,117.46,,109.70091256032327,123.61741913699778,2.1751926580222443
146,113.27,113.935,112.5,113.14,225601,113.06,115.91,117.33,,109.44678347148088,123.43187988860518,2.1223217538777983
147,113.45,114.97,113.14,113.71,231711,112.91,115.48,117.22,,109.42811768098254,122.6082368549497,2.1014416286008126
148,112.31,114.175,112.31,112.91,196092,112.85,115.17,117.11,,109.33387810428478,121.69977400484032,2.0845529408436114
149,113.36,114.93,113.21,114.6,192596,112.88,114.97,117.04,,109.24349161106605,121.13228827974409,2.0799420164976397
150,115.01,115.9,113.92,114.51,264793,113.14,114.89,116.96,,109.20965203735177,120.9304740923238,2.072803301033523
151,115.09,116.17,114.5,114.98,142327,113.45,114.74,116.88,,109.24182030677738,120.65168596519126,2.044031636673986
152,115.8,116.79,115.52,116.52,222482,113.94,114.71,116.81,,109.29511206064564,120.35253393715941,2.0273150911972726
153,118.12,118.39,116.185,116.85,233329,114.42,114.63,116.79,,109.36541012670844,120.29538281790799,2.0400068703974674
154,117.05,118.825,116.7,118.06,206674,115.03,114.59,116.78,,109.59244361095288,120.01548736587722,2.0460778082262197
155,117.7,118.91,117.25,117.67,236605,115.53,114.55,116.77,,109.72048068451559,119.80823694083645,2.0185008219243468
156,117.5,118.03,116.04,116.45,133934,115.84,114.49,116.8,,109.89470858916877,119.49804219576524,2.01646504892975
157,114.72,116.59,114.22,116.34,198125,116.22,114.51,116.75,,109.89797406193797,119.41803168561319,2.0417175454347682
158,116.71,117.23,116.19,116.27,95791,116.41,114.57,116.7,,109.83493846284622,119.47922142885133,1.970166292189428
159,116.64,116.64,114.58,115.19,129430,116.48,114.65,116.64,,110.06705785394789,119.56765695802038,1.976582985604469
160,116.05,117.56,115.22,117.0,295091,116.71,114.79,116.63,,110.10907871703024,119.7656688974011,2.004684200918436
161,117.27,118.4,117.27,117.75,160339,116.84,115.07,116.6,,110.27647239049332,120.06647969475192,1.961492472281405
162,117.89,118.475,116.745,118.31,203380,117.0,115.37,116.62,,110.68941742485897,120.23395477481156,1.9449572956898755
163,118.75,118.97,117.48,118.35,134930,117.04,115.68,116.66,,111.06281935185565,120.31037304866176,1.9124603459977412
164,117.35,117.49,115.93,117.39,169533,117.01,115.93,116.64,,111.46945691191712,120.31165934690189,1.948713178426473
165,117.17,117.19,115.61,115.65,187119,116.92,116.08,116.59,,112.01129595370534,120.11212258836525,1.9366622371102966
166,114.11,114.61,112.25,112.34,255596,116.47,116.04,116.48,,111.95255389899123,120.01986047834835,2.0411863630309903
167,112.3,113.1,110.3445,112.9,366544,116.1,116.0,116.38,,111.24784573435879,120.28818674037153,2.092208765671634
168,116.25,116.76,113.54,114.14,510820,115.98,116.06,116.32,,111.45981842062892,120.162994973384,2.21847956812366
169,115.17,118.29,114.67,118.19,360554,116.11,116.24,116.32,,111.6373110011977,120.21011106217334,2.3564453132576846
170,118.5,121.46,118.329,119.57,378381,116.32,116.5,116.33,,111.65404985618562,120.96770059007261,2.421699219453564
171,120.0,120.02,118.1,119.05,241867,116.4,116.7,116.35,,111.6803013941878,121.27604343966755,2.385863560921167
172,120.61,123.1,120.43,122.81,297596,116.89,117.01,116.43,,111.3741732932922,122.29922970736868,2.504730449426798
173,123.59,124.61,122.47,123.6,332389,117.58,117.35,116.5,,110.79756587755439,123.5302803966089,2.4786782744677414
174,127.62,128.86,122.11,123.18,556380,118.42,117.61,116.6,,110.44637799493664,125.85205022620049,2.783772683434332
175,123.39,128.8,122.9466,127.63,511397,120.12,118.11,116.79,,110.06445407557867,127.64487568295343,3.0030317774747375
176,127.75,127.75,124.365,125.2,320980,121.49,118.54,116.9,,109.66935090604863,128.91351938508316,3.0303152219408283
177,124.24,125.21,122.59,124.18,139680,122.6,118.93,116.95,,109.84284947155803,129.5198147656122,3.001006991802197
178,124.1,126.0,124.1,124.73,115844,123.33,119.36,117.06,,109.73895062904253,130.1878208641807,2.922363635244898
179,126.28,127.0,125.57,126.74,321922,124.12,119.94,117.22,,109.78396521120877,130.90892167884226,2.875766232727405
180,126.26,128.1,125.7,127.45,270075,125.06,120.46,117.44,,109.88925810709534,131.7466495396197,2.8417829303897326
181,127.43,127.86,125.97,126.38,253527,125.45,120.89,117.61,,109.86002938379082,132.4518500348771,2.7737984353618947
182,126.7,127.615,126.0,127.22,350079,125.86,121.34,117.82,,109.98800915144476,133.02692249151173,2.6910271185503305
183,127.51,128.36,127.19,127.79,305291,126.37,121.81,118.0,,110.0373060540816,133.64579306387247,2.582382324368165
184,128.06,129.12,126.4024,126.87,217443,126.28,122.28,118.16,,110.45653682645252,134.20519433799709,2.5920407297704395
185,128.16,128.47,126.875,127.88,409401,126.58,122.89,118.35,,111.01379046891077,134.5078509301678,2.5211806776439794
186,128.48,128.48,125.77,126.36,204976,126.82,123.59,118.52,,112.48726632555501,134.29041884263003,2.5346677720979804
187,126.55,127.3,126.08,126.91,78170,127.07,124.29,118.74,,114.8998057275373,133.19244242695012,2.4407629312338393
188,126.79,126.93,125.685,126.32,122607,127.02,124.9,118.97,,116.7632077533191,132.43943621632056,2.355351293288565
189,127.15,128.58,126.42,127.81,110298,127.06,125.38,119.26,,118.68770254649519,131.81898846930187,2.348540486625098
190,127.36,128.05,125.72,126.26,98417,127.05,125.72,119.49,,119.7615729749422,131.54885333091943,2.3472161661518776
191,126.07,127.11,125.15,125.87,76735,126.9,126.06,119.77,,121.1952624231264,130.49235303972372,2.3195578685696003
192,125.48,127.8,125.48,127.73,121048,126.89,126.31,120.08,,122.09638288155585,129.99943072639215,2.319589449386057
193,127.99,128.99,127.64,128.55,82506,127.08,126.55,120.41,,122.42896939160234,129.83872954472824,2.250333060144196
194,128.29,130.9,127.9381,129.09,132518,127.21,126.85,120.74,,122.9399152438619,130.33051692279207,2.3011592701338963
195,129.13,130.18,128.66,129.53,112044,127.56,126.94,121.08,,123.23400130994382,130.5779221402179,2.2453621794100473
196,129.47,131.09,129.02,130.47,194405,127.96,127.21,121.43,,123.25572624392628,131.08800071216214,2.2328363094521864
197,129.59,131.1,129.59,130.46,133337,128.42,127.52,121.76,,123.75107254730722,131.3185495634224,2.181205144491315
198,131.05,131.99,128.2,128.41,145900,128.49,127.71,122.07,,124.1150563094925,131.7862109812799,2.296119062741937
199,128.56,130.65,128.31,130.34,119406,128.94,127.88,122.38,112.8,124.22627547180863,131.96427692135367,2.2992534154032276
200,130.99,131.7399,130.2,131.11,214561,129.52,128.07,122.72,112.94,124.13328434420625,132.3647558262924,2.24501388573157
201,131.29,133.69,131.0,133.13,244429,130.12,128.41,123.08,113.09,123.97154121250402,133.1849861019782,2.2767986081793152
202,134.0,134.67,133.64,134.55,333405,130.79,128.77,123.44,113.23,123.41217402718132,134.1076405578547,2.2241701361665065
203,132.78,135.0,131.5,134.84,142041,131.43,129.12,123.8,113.38,123.32661366772328,134.97111895953648,2.315300840726042
204,134.65,136.22,134.01,134.73,183236,132.0,129.52,124.13,113.52,123.04548980755465,136.0131514062501,2.3077793521027536
205,134.52,135.75,134.45,134.52,146110,132.45,129.85,124.47,113.68,122.81824190683932,136.77100902699664,2.235795112666844
206,135.0,136.37,134.65,135.7,72391,133.04,130.32,124.86,113.84,122.87452538099409,137.54807936633694,2.208238318904926
207,136.19,137.14,135.055,135.67,74962,133.84,130.75,125.24,114.03,122.97955688836268,138.2863047560938,2.1994355818402873
208,136.27,136.75,134.8387,135.24,61926,134.39,131.2,125.62,114.23,123.3172072160113,138.74490840833113,2.1788544688516964
209,135.91,137.36,135.456,136.38,70210,134.97,131.63,126.05,114.43,123.5915596275974,139.34048245182152,2.1746505782194325
210,136.77,137.32,135.61,136.97,106212,135.4,132.16,126.44,114.68,124.11845768400937,139.75313390435682,2.1414612512037574
211,135.92,137.97,133.68,134.05,281139,135.34,132.57,126.77,114.86,125.03547940439576,140.00762255190622,2.294928304689203
212,134.13,135.29,133.54,133.79,157556,135.23,132.88,127.08,115.05,126.03179160134889,139.7916230683233,2.2560048543542597
213,134.22,137.97,134.22,137.72,224162,135.56,133.33,127.47,115.24,126.62487711538658,139.98899177106597,2.3934330790432417
214,137.52,140.0,136.505,139.7,138122,136.14,133.87,127.91,115.48,127.10904062229771,140.70288648771003,2.472116430540153
215,139.57,140.62,137.755,139.05,100596,136.51,134.34,128.38,115.76,127.43524907803881,141.31023341110054,2.5001795426444287
216,139.5,139.87,138.38,138.71,82840,136.85,134.75,128.91,116.01,127.76331247788191,141.69423978340845,2.42802386102697
217,138.81,139.23,137.09,138.07,314837,137.16,135.13,129.41,116.25,128.24248300358028,141.8261668995033,2.4074507280964714
218,137.95,139.58,136.14,138.54,380068,137.4,135.64,129.9,116.46,129.2422367807185,142.00474727427877,2.4812042475181544
219,138.5,140.71,137.52,139.28,156386,137.66,136.09,130.32,116.69,130.36579751572066,141.99545332927664,2.531832515552572
220,139.04,141.33,138.37,138.83,128710,138.19,136.47,130.71,116.88,131.0494395019578,142.097939147274,2.5624159072988175
221,139.58,140.62,137.25,137.25,178198,138.57,136.68,131.07,117.07,131.76538423194842,142.22274771172033,2.6201004853489023
222,137.73,140.75,137.49,140.62,193695,138.89,136.98,131.43,117.29,131.96098910063395,142.39454506121143,2.6829504506811235
223,140.27,141.125,138.01,138.01,176250,138.71,137.14,131.72,117.5,132.710350465592,142.57853824482947,2.7138111327753296
224,137.86,138.38,137.11,138.19,182594,138.61,137.31,132.02,117.72,132.96984057913366,142.5288467998426,2.6106817661485193
225,138.16,139.92,137.85,139.57,156963,138.71,137.57,132.26,117.91,133.16034698214466,142.5061793255439,2.572061639995053
226,139.43,140.0,137.08,138.8,99822,138.79,137.72,132.53,118.1,133.36731507353807,142.50848559011257,2.5969143799954058
227,137.53,137.53,133.15,133.25,140782,138.2,137.6,132.71,118.25,132.98620301511795,142.48508374322222,2.8149919242814487
228,134.08,135.8,133.6064,135.03,121293,137.73,137.59,132.91,118.38,132.7665312481475,142.60089393668667,2.7960639296899172
229,134.43,135.36,131.82,132.95,183439,137.07,137.42,133.04,118.54,132.06641229869564,142.80476201221964,2.849202220426353
230,134.13,134.39,131.805,134.06,153040,136.72,137.27,133.17,118.69,131.44243023777926,143.11945897792958,2.8303306332530407
231,135.05,138.12,134.74,136.93,148301,136.31,137.42,133.38,118.87,131.58278451491515,143.1212157966957,2.918164159449252
232,136.16,137.3,135.385,136.55,103517,136.15,137.56,133.57,119.04,131.81490283486292,142.95876739085483,2.84650957663145
233,136.12,138.4,135.0,137.9,208557,136.12,137.56,133.77,119.22,131.91122987560408,142.9632430610617,2.886044606872061
234,139.46,140.73,138.715,140.56,129043,136.23,137.61,134.04,119.39,131.8635514033253,143.05283552946236,2.882041420666913
235,141.25,142.0,140.53,141.99,130728,136.58,137.75,134.33,119.57,131.6338136257619,143.28216043193743,2.781181319190705
236,141.96,142.89,141.22,142.15,143136,137.57,137.93,134.64,119.74,131.36571348349233,143.7587910609473,2.7018112249627966
237,143.0,144.105,142.505,143.14,95024,138.47,138.18,134.97,119.93,130.9748972060064,144.50226669436472,2.6484675660368815
238,143.5,144.32,142.06,142.97,121109,139.58,138.4,135.3,120.13,130.8178207290367,145.1893795084377,2.620719882748532
239,142.38,144.76,142.38,144.5,83893,140.74,138.66,135.63,120.29,130.62260849448256,145.8308390559095,2.6035256054093505
240,144.61,144.72,142.9,143.67,140786,141.49,138.9,135.98,120.45,130.40456633848342,146.35603279536622,2.5475594907372536
241,143.75,144.175,142.445,143.11,164136,142.22,139.2,136.33,120.61,130.33615779708083,146.79556154461363,2.489162384256023
242,142.62,143.18,141.3,141.3,153615,142.6,139.23,136.6,120.79,130.36593595257557,147.04574527748414,2.445650785380592
243,138.57,138.57,131.61,132.25,422755,141.68,138.94,136.67,120.92,129.5306655989057,146.95401337908828,2.96310430071055
244,131.25,131.37,127.5,129.25,297300,140.26,138.5,136.68,121.03,127.86376463493477,147.65853921132418,3.090739707802654
245,127.82,128.72,126.78,128.33,372420,138.72,137.93,136.65,121.14,126.22561106989794,148.5623117969721,3.0464011572453216
246,128.26,129.04,127.8,128.76,174301,137.13,137.43,136.62,121.26,125.04358134983435,149.08316536516483,2.9173725031563698
247,128.77,130.91,128.77,130.25,337684,135.71,137.28,136.61,121.39,124.40994082667491,149.329287560142,2.8625601815023436
248,131.06,131.57,129.555,130.25,318159,134.13,137.04,136.65,121.5,123.8964131395509,149.49192445680296,2.8020201685378896
249,130.78,132.0,129.875,130.62,251943,132.68,136.93,136.66,121.62,123.63284097835212,149.60115555862504,2.7536615850708976
250,130.44,130.6646,129.47,130.35,289663,131.26,136.74,136.64,121.75,123.31526474678049,149.77913868109187,2.64230004328012
251,130.37,132.18,129.5037,131.125,162486,130.13,136.45,136.6,121.9,122.7613699863379,149.7500685242238,2.6447286116172544
252,130.89,131.9,130.125,130.4,451773,129.93,136.14,136.52,122.04,122.28945314562876,149.74301425100333,2.582605139358879
253,131.14,134.14,130.41,134.09,151814,130.46,135.95,136.5,122.2,121.89513111732703,149.5971876395239,2.6652762008332433
254,134.83,138.48,134.1,137.72,197644,131.51,135.81,136.56,122.37,121.79711258125458,149.38714385420369,2.788470757916582
255,138.68,140.67,137.68,137.69,207520,132.5,135.6,136.63,122.54,121.87468667975995,149.2212823940583,2.8028657037796822
256,138.21,140.12,137.935,139.31,124384,133.51,135.45,136.7,122.71,122.00433682176474,148.86007389282187,2.776232439223991
257,139.19,140.415,138.74,139.4,143067,134.52,135.27,136.77,122.88,122.2435939849765,148.31174706916335,2.6975729792794194
258,140.0,141.24,139.2648,140.95,155792,135.67,135.17,136.89,123.06,122.44197981385928,147.80592292337116,2.6459749093308895
259,141.78,143.03,141.015,142.12,327875,136.98,135.05,137.0,123.23,122.57155170485734,147.47656699046712,2.60554813009297
260,141.71,142.1,139.3316,140.6,224436,138.03,134.89,137.07,123.37,122.89545625109974,146.98662572561292,2.618608977943472
261,139.91,141.74,139.376,141.19,136735,139.23,134.8,137.22,123.51,123.19111539864373,146.53623249890683,2.6004226223760813
262,141.34,142.47,140.94,141.52,143396,140.06,134.81,137.37,123.66,123.22926535991326,146.40371801401088,2.523963863634933
263,142.06,142.33,139.04,139.31,270268,140.23,135.16,137.4,123.8,123.35218746561212,146.9151308812053,2.578680730518154
264,138.97,141.86,138.26,141.59,206875,140.67,135.78,137.44,123.95,124.16309475498655,147.45996873160288,2.651632106909716
265,140.53,142.56,140.16,140.84,242431,140.84,136.4,137.48,124.09,125.1858044760936,147.73889092319826,2.633658384987594
266,141.59,144.33,141.16,141.88,263347,141.11,137.06,137.54,124.24,126.11968249526855,148.1303803511058,2.6948256432027664
267,141.4,143.23,140.45,142.55,202723,141.29,137.68,137.63,124.38,127.07327911434928,148.35229940346525,2.7009095258311406
268,143.0,144.82,142.19,144.81,226031,141.59,138.4,137.76,124.54,127.92718010317118,148.72023198726666,2.695844559700345
269,144.24,145.9,143.39,144.8,216669,142.05,139.11,137.87,124.7,128.81240949762653,149.12079906355112,2.6825699482931786
270,144.33,144.41,142.6,142.96,206159,142.25,139.74,137.95,124.86,130.09321186048268,148.7683064256375,2.6481006662722386
271,143.03,143.47,141.23,141.74,302254,142.28,140.27,138.04,125.04,131.7121203939042,148.24512855432772,2.618950618681365
272,142.77,143.98,141.38,143.83,193737,142.78,140.94,138.1,125.23,133.50582442820237,147.22072504689575,2.6175970030612676
273,144.95,144.95,143.34,144.51,155880,143.1,141.47,138.23,125.43,135.66971607532582,146.3315314468387,2.5456257885568903
274,144.04,145.99,143.32,145.99,148765,143.67,141.88,138.39,125.62,136.90240784125524,146.46223225389883,2.554509660802828
275,145.28,145.5,143.38,143.61,157137,143.87,142.18,138.47,125.8,137.238107071409,146.69890973237807,2.5584732564597696
276,143.8,143.96,142.19,143.76,117661,144.0,142.4,138.57,125.99,137.67486708556316,146.5797569852532,2.5021537381412156
277,144.42,145.3,143.28,145.22,107668,144.05,142.69,138.81,126.18,137.94228837019446,146.59518108406013,2.4677141854168436
278,144.68,146.38,144.68,146.26,65700,144.21,142.95,139.03,126.37,138.02221302107856,146.86064390676958,2.412877457887068
279,146.6,147.01,145.44,146.33,128445,144.58,143.17,139.3,126.56,137.84661044752198,147.33289106583317,2.3526719251808488
280,144.5,146.15,144.5,145.69,146499,145.02,143.42,139.53,126.76,138.0967719680949,147.51125866533314,2.3153382162393608
