,o,h,l,c,v,sma9,sma20,sma50,sma200,lower,upper,atr
0,57.3,63.26,56.3392,63.26,9463424,,,,,,,6.9208
1,63.81,63.9,60.16,62.86,6236049,,,,,,,6.6936
2,62.93,65.41,60.89,62.34,5499060,,,,,,,6.538342857142857
3,63.62,64.5,62.28,64.07,4154863,,,,,,,6.229889795918368
4,61.78,63.74,60.71,61.86,3474847,,,,,,,6.024897667638484
5,58.92,59.9,53.87,55.29,8952491,,,,,55.8170455745309,65.34213133617696,6.165262119950022
6,38.22,40.18,34.89,37.591,16750805,,,,,44.966166361125666,69.3067725184628,7.182029111382162
7,39.88,41.71,35.811,41.59,12122012,,,,,38.62720047686856,67.65690013952442,7.090384174854865
8,39.45,39.945,37.56,38.92,11428493,54.2,,,,34.65179162679986,63.88316845553058,6.8717853052223745
9,35.19,35.945,31.66,32.51,11059857,50.78,,,,30.539093473971754,58.676727774473356,6.899514926277919
10,35.25,35.82,30.25,34.8,12278761,47.66,,,,28.805998390456796,51.22229012014213,6.804549574400926
11,29.99,36.085,28.11,31.11,9160924,44.19,,,,29.426765355150174,40.90643691473452,6.888153176229431
12,31.39,33.24,29.62,30.84,8243174,40.5,,,,28.44716777887267,40.23044646196308,6.654713663641615
13,28.19,30.145,27.0001,29.7701,6027833,36.94,,,,26.96511479356917,38.471792109556866,6.453655544810071
14,29.94,34.55,29.76,33.28,7811055,34.49,,,,27.761009649699616,36.60629784736562,6.334823005895066
15,34.69,37.23,33.5201,34.87,10202766,34.19,,,,27.486404766628176,37.05185694825322,6.16447850547399
16,34.6,36.53,33.11,34.66,7609049,33.42,,,,27.55506314511281,37.25833597547956,5.9684443265115625
17,36.44,40.0,35.72,39.86,8924358,33.52,,,,28.252525815361338,38.70904600144228,5.923555446046452
18,39.09,41.57,36.7,39.74,7430204,34.33,,,,28.972569681272454,40.732904746623205,5.848301485614562
19,36.12,40.2,36.12,39.37,8285149,34.83,43.43,,,31.56277350645444,41.01200466899711,5.721994236642094
20,37.83,38.39,34.88,36.01,8973103,35.38,42.07,,,33.56342884817185,40.91797365072354,5.633994648310516
21,35.01,35.47,33.52,35.05,7413831,35.85,40.68,,,33.56339158133533,41.0348940664058,5.409423602002621
22,36.9,38.61,35.18,35.92,6176696,36.53,39.36,,,34.24419553005231,41.13859000283528,5.277321916145292
23,34.57,35.47,33.55,34.59,5104652,36.67,37.88,,,33.6890782179742,40.7517204949082,5.069656064992057
24,36.63,43.45,36.2883,38.3,11642634,37.06,36.7,,,33.721526877042976,41.62225407744467,5.340394917492625
25,40.0,41.29,38.43,39.88,18994449,37.64,35.93,,,33.453598702445824,41.94866533417465,5.172509566243153
26,40.68,40.94,37.6603,39.42,15765595,37.59,36.02,,,33.709567350620816,42.480116791810666,5.037308882940071
27,42.0,42.94,40.61,41.32,12529073,37.76,36.01,,,34.4542516524606,43.42764336346719,4.9289296770157796
28,42.26,45.39,42.17,45.33,11662942,38.42,36.33,,,35.04726860378164,44.97671606113909,4.867577557228938
29,47.25,47.58,42.55,44.82,20517465,39.4,36.95,,,37.07156402656464,46.12476494069321,4.879179160284014
30,46.2,46.98,42.74,43.29,8798954,40.32,37.37,,,38.4958613922217,47.058987447266745,4.833523505978013
31,42.85,43.48,41.77,42.23,9633718,41.02,37.93,,,39.3357644374466,47.10354767225198,4.61041468412244
32,39.37,40.4,38.78,39.85,11669290,41.6,38.38,,,39.93145350346782,47.17106081788702,4.527527920970837
33,39.55,39.65,36.4,36.54,11798230,41.41,38.72,,,38.16365988247365,47.252097575783985,4.450561640901491
34,37.55,42.13,37.49,41.805,14183628,41.62,39.14,,,37.20257016438195,46.68557536485002,4.531950095122815
35,39.03,43.03,38.84,41.16,11747284,41.82,39.46,,,36.883320652206606,45.21575127870734,4.507525088328328
36,39.27,41.64,39.27,40.51,11559618,41.73,39.75,,,36.94122115554489,43.20594988312738,4.354844724876305
37,42.69,43.28,41.59,43.17,7578786,41.49,39.92,,,36.97036386071242,43.12676882603607,4.241641530242283
38,45.25,46.12,44.08,44.23,12159072,41.42,40.14,,,36.804237831118556,44.78046461567144,4.149381420939263
39,45.0,45.33,42.81,43.36,8751416,41.43,40.34,,,38.13147886020139,45.36441234809226,4.032997033729315
40,42.86,45.08,42.05,44.52,8949948,41.68,40.76,,,39.40480959121747,45.778246154125014,3.961354388462936
41,46.04,46.81,44.5,44.94,8215680,42.25,41.26,,,40.48731997191757,46.62776953777048,3.8434005035727266
42,47.2,47.9,45.465,47.73,11432242,43.49,41.85,,,41.90707087135758,47.34135936166761,3.780300467603246
43,47.8,49.11,45.86,47.47,9611460,44.12,42.49,,,42.64538748740169,48.28025882090426,3.7424218627744428
44,46.14,46.96,43.835,44.58,9904376,44.5,42.81,,,42.599617014951185,48.39246522055349,3.7347488725762683
45,43.5,46.8,43.26,46.73,9261338,45.19,43.15,,,42.742065783788966,48.448177865607015,3.7208382388208205
46,48.5,49.2,45.7,46.05,12224624,45.51,43.48,,,43.696384612628684,48.92553630779766,3.705064078905048
47,46.14,47.08,45.6,45.85,5528592,45.69,43.71,,,43.84179535977277,48.927915563866215,3.54613093041183
48,47.57,49.41,47.39,48.23,10404968,46.23,43.85,,,43.77513225523138,49.35634032724399,3.5471215782395564
49,49.3,51.51,48.46,51.46,13128965,47.0,44.19,42.86,,43.711745130282665,50.37247852907188,3.52804146550816
50,50.74,51.97,49.5032,49.87,9600484,47.55,44.51,42.59,,44.395586555034185,51.4828023321048,3.4522385036861487
51,50.01,50.54,48.71,49.74,9677898,47.78,44.89,42.33,,45.9333502131323,51.737896401798,3.336364324851424
52,49.45,49.45,47.55,48.22,10237648,47.86,45.31,42.05,,46.51190428448094,51.761345399657365,3.2544811587906084
53,47.14,48.96,45.91,47.56,10650554,48.19,45.86,41.72,,46.665135345973475,51.541213817109856,3.2398753617341365
54,47.09,48.81,46.94,47.69,5864306,48.3,46.15,41.43,,46.53967342252085,51.548049038202606,3.14202712161027
55,50.5,52.68,50.01,52.44,8407492,49.01,46.72,41.38,,46.526953191974044,52.02567918714408,3.2740251843523938
56,52.29,52.765,50.58,50.68,6546432,49.54,47.23,41.64,,46.471531283807174,52.334578887983604,3.196237671184366
57,51.65,53.39,51.51,52.63,4953486,50.03,47.7,41.86,,46.498964682640334,53.1543669292686,3.161506408956911
58,52.95,53.56,51.61,52.33,5974544,50.13,48.1,42.13,,47.004761080838186,53.89733805506736,3.0749702368885607
59,52.21,52.38,50.95,52.27,4029038,50.4,48.55,42.52,,48.531839105591146,54.01431642216403,2.9574723628250923
60,54.36,54.37,51.3,51.4,9594466,50.58,48.89,42.85,,50.3799927536655,53.921055331541744,2.9655100511947285
61,52.28,52.74,50.33,52.71,6467597,51.08,49.28,43.29,,50.52957222010272,53.9230273285088,2.925830761823677
62,52.61,53.1037,51.31,51.66,8347816,51.53,49.48,43.7,,50.69935927577014,53.951284112632244,2.844964278836272
63,51.48,51.48,49.93,50.92,8250926,51.89,49.65,44.12,,50.25687192623633,53.933061771885235,2.7653239732051094
64,50.72,51.92,50.0,51.78,5828512,51.82,50.01,44.49,,50.00574142016969,53.680070254401194,2.704943689404745
65,52.5,54.85,52.35,54.83,8387526,52.28,50.42,44.89,,49.92121129854925,54.40534337778444,2.731019140161549
66,56.11,56.26,53.93,55.38,7412930,52.59,50.88,45.31,,49.72549516514706,55.218861358403025,2.7023749158642953
67,55.0,55.69,54.15,55.14,5890566,52.9,51.35,45.61,,50.08958899431941,55.88822283946095,2.6193481361597026
68,59.21,59.86,58.22,59.35,10158168,53.69,51.9,46.01,,49.99095794454423,58.09486628559504,2.769394697862581
69,61.97,62.4288,59.1,62.06,9879220,54.87,52.43,46.46,,51.15442223830083,60.58127362729287,2.8093522194438254
70,59.56,61.42,58.65,59.59,10909618,55.63,52.92,46.93,,53.148991793301306,61.64326764164792,2.8522556323406953
71,58.03,58.11,55.61,55.62,11620224,56.07,53.21,47.34,,54.278142371412656,61.70371248108006,2.9328088014592177
72,51.77,54.93,51.07,51.28,10040594,56.11,53.37,47.65,,52.992195535230934,61.78149509320069,3.048322458497845
73,53.85,54.18,51.2,51.2,2517286,56.05,53.55,47.98,,51.94606161922619,61.875463389095216,3.043442282890856
74,49.73,52.7399,49.27,52.21,8242350,55.76,53.77,48.26,,49.93366509869048,61.30347170996124,3.0739035483986514
75,54.55,54.935,51.9,54.61,8259235,55.67,53.88,48.56,,49.46266864207017,59.21576485758433,3.0711247235130337
76,54.5,54.55,52.44,52.47,6242372,55.38,53.97,48.82,,49.810236355311936,56.67456120418897,3.0067586718335315
77,52.0,53.84,51.47,52.94,5301058,54.66,53.99,49.05,,50.144393688709656,55.0273708751628,2.961275909559708
78,55.44,55.49,52.38,52.42,10015498,53.59,53.99,49.19,,50.27179303668656,55.24214849685137,2.971899058876872
79,51.99,52.82,51.331,52.4,2758476,52.79,54.0,49.34,,50.29785515440133,55.192018813815295,2.865977697528524
80,53.19,53.5,52.0,52.47,2875710,52.44,54.05,49.53,,51.46448677171052,55.17406471553652,2.7684078619907724
81,51.57,52.3,48.91,48.98,3761437,52.19,53.87,49.66,,50.109667121808585,54.90806735555448,2.8249501575628604
82,48.43,50.8,48.0101,50.74,2810541,52.14,53.82,49.88,,48.89793593153674,54.701347043008276,2.8224465748797987
83,50.16,50.26,48.41,48.77,2803442,51.76,53.71,50.12,,48.227689603007846,54.424924134393905,2.787271819531242
84,49.03,49.85,48.43,49.65,1984001,51.2,53.61,50.28,,47.812122570569116,53.07733859412575,2.689609546707582
85,49.05,51.01,48.78,50.65,2278597,51.0,53.4,50.47,,47.62982599361503,52.65466764132549,2.656780293371326
86,51.03,51.95,49.78,49.86,2788256,50.66,53.12,50.66,,48.11215845814518,51.97679348888415,2.6220102724162313
87,51.17,51.63,50.45,50.53,3853673,50.45,52.89,50.8,,48.03764765687211,51.71264824099327,2.561152395815072
88,51.22,52.09,49.87,50.4,2009294,50.23,52.44,50.93,,48.42688374832796,52.05402053946575,2.5367843675425674
89,49.68,49.78,48.02,48.14,3285656,49.75,51.75,51.02,,48.272279144804806,52.07952690359943,2.5255854841466694
90,48.28,48.755,47.17,47.44,3182127,49.58,51.14,51.08,,47.76069237969391,52.20433113843315,2.4584008067076217
91,47.28,47.44,44.28,44.41,4481084,48.87,50.58,51.07,,45.94716095989752,52.1991872293276,2.5085150347999345
92,44.34,45.57,44.04,45.4,3924402,48.5,50.28,51.02,,44.59167915645788,51.70343120837603,2.4386211037427965
93,45.87,46.135,44.54,44.96,3474989,47.98,49.97,50.97,,43.92235949316832,50.72979362575159,2.3783624534754537
94,44.84,47.3,44.47,47.3,3142703,47.6,49.73,51.03,,43.70515889948951,49.071791000383605,2.410622278227207
95,48.29,48.413,46.3,47.44,3788996,47.34,49.37,51.04,,43.85077859116182,48.51138641737732,2.389363544068121
96,46.52,48.35,46.14,47.82,2564826,47.03,49.14,51.08,,43.970376261857545,48.354813574458944,2.3765518623489696
97,47.83,48.89,46.86,47.15,2165070,46.67,48.85,51.1,,44.213287836804774,48.79183653568568,2.351798157895472
98,46.93,48.65,46.93,47.7,3433276,46.62,48.61,51.09,,44.769672757491875,49.00174744585872,2.306669718045795
99,48.7,50.99,48.7,50.42,3839242,46.96,48.51,51.07,,45.194199302148746,49.98384539437741,2.3769075953282384
100,49.61,50.48,49.01,50.18,2315479,47.6,48.4,51.08,,46.093948663400106,50.4381502089444,2.3121284813762215
101,49.58,50.075,48.68,48.84,2696912,47.98,48.39,51.06,,46.5029379637832,50.658473065964664,2.254119304135063
102,49.14,49.98,48.62,49.03,2837384,48.43,48.3,51.08,,47.16434072930228,50.752508103939775,2.190253639553987
103,48.81,49.49,48.17,48.56,1928203,48.57,48.29,51.1,,47.60484897360705,50.754156892945595,2.1280926653001306
104,48.11,48.69,47.19,47.2779,3787672,48.55,48.18,51.09,,47.74603929240652,50.74810628952047,2.0832289034929783
105,47.39,48.52,46.945,48.5,5353857,48.63,48.07,51.01,,47.25374944771729,50.33021923550603,2.046926838957766
106,47.34,47.687,46.09,46.58,5677882,48.57,47.9,50.93,,46.57588902392689,50.008977666637975,2.072860636175068
107,45.91,46.8843,45.85,46.85,4750714,48.47,47.72,50.81,,46.04341048718512,49.679242573708734,1.9986777335911348
108,46.86,47.07,45.91,46.36,4692074,48.02,47.52,50.69,,45.77823663531774,49.07224939622261,1.9387721811917684
109,46.38,48.77,46.09,48.48,12340664,47.83,47.53,50.62,,45.77341376110788,48.776306136018164,1.9917170253923566
110,49.87,51.11,49.52,50.75,7311434,48.04,47.7,50.6,,45.313165552428266,49.892542097002476,2.03730866643576
111,50.41,51.08,50.26,50.89,5558123,48.25,48.02,50.57,,45.254341233408795,50.686799748614824,1.950358047404634
112,47.0,49.19,45.07,48.81,16328225,48.28,48.19,50.51,,44.92760598530884,50.864909972293454,2.2267610440185885
113,48.84,50.63,48.8,50.47,6239580,48.63,48.47,50.5,,45.42940316770919,51.240346330222614,2.198420969445833
114,52.0,52.78,49.23,49.41,8450341,48.73,48.58,50.45,,46.08094163277418,52.04801772063781,2.294962328771131
115,50.33,50.34,48.62,49.09,8251426,49.01,48.66,50.34,,46.76682386001179,52.03052966785222,2.253893591001765
116,48.77,49.15,47.38,47.41,3009168,49.07,48.64,50.18,,46.420791071098996,51.878228390983146,2.2193297630730675
117,47.35,47.98,46.9335,47.97,3196626,49.25,48.68,50.04,,46.12308881568115,51.66690582360664,2.135556208567848
118,47.9,47.9,46.09,46.54,6922834,49.04,48.62,49.78,,46.61278573659086,51.65169946062674,2.1173021936701444
119,46.32,47.18,46.18,46.37,5532108,48.55,48.42,49.47,,46.120310194398726,51.28924899070295,2.0374948941222772
120,46.2,46.56,45.4403,45.6,5027253,47.96,48.19,49.19,,45.64260996488479,49.55241727354914,1.9719381159706861
121,44.96,45.3,44.09,44.11,7259865,47.44,47.95,48.96,,44.85487664151109,48.6712541234622,1.9389425362584942
122,44.08,44.12,42.98,43.39,6743354,46.65,47.67,48.8,,43.80700099679167,48.03771423832049,1.8818752122400304
123,43.71,44.965,43.36,44.35,7084755,46.09,47.46,48.66,,43.2903321659349,47.44718578180931,1.8620984113657428
124,44.98,45.13,44.05,44.39,5388775,45.57,47.32,48.51,,43.121046006922725,46.66523661203346,1.8062342391253332
125,44.24,44.36,43.01,43.26,5420964,45.11,47.05,48.28,,42.89172156900941,45.932056571727735,1.7757889363306667
126,43.61,45.1,43.2,44.95,10088912,44.77,46.97,48.13,,42.947397542371554,45.30393415361897,1.7846611551641904
127,45.31,46.25,44.76,46.23,5861501,44.74,46.94,47.99,,42.85450726438904,45.732307021986465,1.76361392979532
128,46.22,46.25,45.01,45.3,4685110,44.62,46.89,47.85,,43.05359866098554,46.09865970535355,1.7262129348099402
129,44.72,45.375,44.39,45.22,4995537,44.58,46.73,47.71,,43.25232035612969,46.14423920095851,1.6732691537520874
130,44.72,45.14,43.53,43.69,8727182,44.53,46.37,47.53,,43.13608681273467,46.14515100832549,1.6744642141983668
131,43.71,44.6,42.78,43.14,9653628,44.5,45.98,47.42,,43.04156765610265,46.11983612220556,1.684859627469912
132,43.57,43.92,42.55,43.13,7369341,44.37,45.7,47.26,,42.79728864752901,46.174410584666624,1.6623696540792041
133,42.17,42.36,40.03,40.82,10311581,43.97,45.22,47.1,,41.29842571672426,45.956157665977656,1.7650575359306897
134,41.36,42.34,40.95,41.86,5792572,43.82,44.84,46.95,,40.75188375940211,45.29673756804473,1.747553426221355
135,40.97,40.99,37.99,38.0,12257017,43.04,44.29,46.7,,39.23535510292233,44.81040531095372,1.8991567529198294
136,38.48,39.19,37.9,39.05,10098827,42.25,43.87,46.48,,38.23229400317366,44.197061080926396,1.8556455562826988
137,39.31,39.76,38.54,39.17,9839035,41.56,43.43,46.25,,37.8002150661973,43.209537011550694,1.8102423022625058
138,39.42,39.78,38.43,38.58,3229722,40.83,43.03,46.02,,37.73836504764089,42.11734282951836,1.7773678521008984
139,38.9,41.58,38.65,40.86,5301188,40.51,42.76,45.87,,37.621162817473056,41.83189589691986,1.864698719807977
140,39.99,41.2,39.56,41.19,2694414,40.3,42.53,45.75,,37.916371221810834,41.37967583934719,1.8486488112502644
141,40.8,41.55,40.31,40.7,2921223,40.03,42.36,45.67,,38.02235578415405,41.56265378923945,1.8051738961609596
142,39.5,40.11,38.29,38.83,4057298,39.8,42.14,45.54,,38.16524394819772,41.53705334950948,1.8483757607208913
143,39.07,39.7,37.9761,38.44,2689681,39.42,41.84,45.41,,37.98310458534361,41.539711732588884,1.8394846349551135
144,38.71,39.08,36.34,36.39,3250241,39.25,41.44,45.19,,37.14961439101371,41.59111755061851,1.9038071610297478
145,36.15,37.44,35.33,36.66,3656285,38.98,41.11,44.98,,36.084462421792146,41.34356568352345,1.9185352209561943
146,36.14,37.8,36.06,37.45,2461468,38.79,40.74,44.77,,35.55160770087574,40.80539830863944,1.9057827051736087
147,38.37,38.37,37.26,37.45,3649002,38.66,40.3,44.57,,35.71840360451424,39.81056588668505,1.8489410833754938
148,37.24,37.47,34.9,36.19,12051883,38.14,39.84,44.34,,35.154272701190365,39.23208459481764,1.9004452917058157
149,36.44,36.76,35.8,35.93,9863095,37.56,39.38,44.05,,35.124964238294055,38.63006172604314,1.8332706280125433
150,35.33,35.82,34.62,34.85,8350592,36.91,38.93,43.75,,34.71217381958157,38.16234531418314,1.795894154583076
151,33.79,35.22,33.63,34.81,9301973,36.46,38.52,43.47,,34.109973500058196,38.1152967451715,1.781187429255713
152,35.46,36.49,35.07,36.46,7381735,36.24,38.18,43.22,,33.987712402267896,37.8191280391339,1.7739597557374478
153,37.18,37.72,35.73,35.99,11023359,36.2,37.94,42.96,,34.15849793360057,37.53492408075193,1.7893912017562017
154,36.0,36.87,35.71,36.73,7715374,36.21,37.69,42.75,,34.23882372738049,37.35079274227563,1.7444346873450443
155,37.11,37.87,36.6706,37.66,6230432,36.23,37.67,42.54,,34.18838555981742,37.708048416901114,1.7055036382489694
156,37.98,38.17,37.175,37.56,5709735,36.24,37.6,42.36,,34.415841407924376,38.15851360098495,1.6547533783740433
157,37.51,38.405,36.66,38.21,7034000,36.47,37.55,42.18,,35.37984635614392,38.3390700233511,1.6611995656330407
158,38.64,40.15,38.485,38.62,14345106,36.77,37.55,42.03,,35.706304307161744,39.288700027492666,1.6811138823735376
159,38.76,39.21,37.6,37.63,12129922,37.07,37.39,41.81,,36.104690638929746,39.5754988442996,1.6760343193468565
160,36.55,38.24,36.16,38.09,8106258,37.44,37.23,41.56,,36.296649120346125,39.52587328673411,1.7048890108220816
161,37.88,39.85,36.65,37.42,18118995,37.55,37.07,41.29,,36.29091600210723,39.86550525669194,1.8116826529062187
162,37.53,37.5893,36.16,36.2,12505420,37.57,36.94,41.04,,36.03587712225841,39.90330827110059,1.7843696062700605
163,36.48,36.605,35.25,36.29,11546986,37.52,36.83,40.75,,35.56142149920551,39.98345836096326,1.7537003486793417
164,36.29,36.35,35.04,35.1,9291075,37.24,36.76,40.47,,35.20583311111157,39.37243185593205,1.7220074666308174
165,35.08,37.13,34.95,36.93,17413311,37.17,36.78,40.22,,34.99085257939363,38.91121668765415,1.7547212190143304
166,37.26,37.7119,36.695,37.52,8115303,37.09,36.78,40.03,,34.983960253682135,38.79048638062957,1.7020197033704498
167,36.77,36.77,34.655,34.95,8562812,36.68,36.66,39.77,,34.665385247601506,37.573451764395514,1.785089724558275
168,34.74,35.185,34.26,34.57,8524282,36.34,36.58,39.53,,34.306701597537575,37.47467242350037,1.7236547442326842
169,33.65,33.69,31.97,32.52,15680791,35.72,36.41,39.25,,33.06264886530567,37.609618905879806,1.7862508339303496
170,31.8,34.04,31.22,33.96,10483322,35.34,36.36,39.02,,31.93343662814918,37.4444925645704,1.8600900600781818
171,33.64,34.26,33.02,34.24,7843337,35.12,36.33,38.82,,31.64783367552195,36.90398744120837,1.81579791292974
172,34.89,35.77,33.4,35.15,7720138,34.99,36.27,38.65,,31.770656235539345,36.12993683482376,1.8553837762919017
173,35.92,35.97,34.53,35.02,6478104,34.98,36.22,38.47,,31.778914102442634,35.773852042414326,1.8257135065567658
174,35.13,36.88,34.22,36.03,9972490,34.88,36.18,38.3,,31.779578194500374,36.38162630144679,1.8853053989455684
175,35.31,36.47,35.31,35.6,8829891,34.67,36.08,38.15,,32.187503741501864,36.72972743592647,1.833497870449456
176,36.3,37.13,34.04,34.59,16226220,34.63,35.93,37.94,,33.271518418391764,37.11103831160626,1.9232480225602093
177,39.45,41.78,39.1,40.31,16754169,35.27,36.04,37.82,,33.042963296389914,39.57242838863284,2.299444592377337
178,41.0,42.25,39.57,42.25,11543892,36.35,36.22,37.76,,33.60234507788443,41.234642722015614,2.326627121493241
179,42.75,43.04,41.2658,41.92,12016008,37.23,36.43,37.69,,34.1467713109157,42.654485085487295,2.287168041386581
180,40.81,41.89,40.12,40.5,7553869,37.93,36.55,37.63,,35.35599943543081,43.2779868287437,2.252370324144683
181,40.98,42.865,40.96,42.72,5762408,38.77,36.82,37.62,,36.530950068105135,43.68906037932045,2.260415300991492
182,44.29,45.48,43.6458,45.44,11869359,39.93,37.28,37.67,,39.15192534237878,44.25330660351286,2.296099922349242
183,44.85,45.8,43.95,45.7,7661402,41.0,37.75,37.77,,39.766526176474,45.225227457502015,2.264235642181439
184,46.2,47.41,44.85,44.93,9242614,42.04,38.24,37.83,,40.542255025863035,46.54448217538065,2.2853616677399073
185,44.45,45.61,44.11,45.45,7371672,43.25,38.67,37.98,,41.02054776482224,46.8983252600843,2.2292644057584856
186,45.1,46.02,44.57,45.38,6330157,43.81,39.06,38.1,,42.279655563925246,47.01127386461698,2.1736026624900227
187,46.13,50.46,46.05,50.37,9589374,44.71,39.83,38.33,,43.668021102081454,48.72199953831964,2.3812024723121636
188,52.14,54.7,51.83,54.42,16380648,46.1,40.83,38.64,,42.89116300727478,51.941533253884806,2.520402295718438
189,53.88,54.78,53.0,53.0,14311082,47.49,41.85,38.89,,43.448367200819604,53.996466128507606,2.4675164174528352
190,52.09,53.38,51.13,51.47,4036820,48.46,42.72,39.09,,44.47443642140081,55.0107651630259,2.4519795304919185
191,50.76,50.81,46.72,46.88,6068630,48.62,43.36,39.22,,45.36225584672972,55.03533182135365,2.616123849742496
192,48.47,48.82,46.45,46.56,3592849,48.72,43.93,39.37,,46.07522042066677,54.63512494076985,2.598543574760889
193,46.58,49.07,46.31,47.82,8421418,49.04,44.57,39.56,,46.16958634708608,54.647105356780436,2.6100761765636826
194,48.75,48.85,47.72,48.17,15666120,49.34,45.17,39.79,,45.72925585022279,53.523618584309745,2.504356449666277
195,49.33,53.01,49.26,53.0,5683952,50.19,46.04,40.12,,46.016888176431635,52.76062167252298,2.671188131832971
196,52.28,52.67,51.1,51.58,4919100,50.32,46.89,40.4,,46.021897214300644,52.471521546277906,2.6161032652734733
197,51.72,52.23,51.02,52.15,4176374,50.07,47.49,40.7,,46.490580057487065,52.83111040559625,2.515667317753939
198,52.83,54.51,52.0184,52.97,5732662,50.07,48.02,41.03,,47.35400284116709,53.99798202415746,2.5139482236286574
199,53.0,55.95,52.96,54.68,4699199,50.42,48.66,41.41,44.85,48.779222131928016,55.27023332199212,2.5479519219408964
200,54.19,54.34,52.85,53.6,3376000,51.17,49.31,41.78,44.8,50.14739053983665,55.183767314459914,2.496669641802261
201,54.44,54.68,51.88,52.09,3143795,51.78,49.78,42.13,44.75,51.14383359178822,55.443067607267295,2.518336095959242
202,52.52,53.41,51.65,53.19,2184613,52.38,50.17,42.46,44.7,51.32579139469071,55.44464387896747,2.464169231962153
203,53.27,53.965,52.42,52.69,2799639,52.88,50.52,42.8,44.64,51.76149425129227,55.32805640663521,2.3985142868219995
204,53.23,53.41,51.5,52.14,3574427,52.79,50.88,43.1,44.59,51.58665418907274,55.247967163225105,2.3636204091918565
205,52.01,52.36,51.03,51.76,6277913,52.81,51.2,43.39,44.58,51.23230233813022,54.519251005790885,2.2897903799638666
206,49.31,51.24,48.59,50.06,4353760,52.58,51.43,43.64,44.64,49.83063282258656,54.39470889743764,2.352662495680733
207,50.0,50.0,48.515,48.85,4363952,52.12,51.35,43.85,44.68,48.95645891080311,53.920430563092516,2.2949723174178236
208,49.45,50.93,49.28,50.1,3264538,51.61,51.14,44.08,44.73,48.574350279859146,53.51386734544925,2.279617151887979
209,50.15,50.2013,49.04,49.6,2023709,51.16,50.97,44.32,44.82,48.37485978485572,52.667907925653346,2.1997373553245523
210,49.8,50.34,48.79,48.94,2247813,50.81,50.84,44.54,44.89,48.27048479201229,51.7217866191906,2.153327544229942
211,49.54,49.83,48.2,48.68,1785481,50.31,50.93,44.76,44.98,48.34886541907315,50.973305231899715,2.1159470053563743
212,48.58,50.65,48.34,50.57,1874691,50.08,51.13,45.05,45.07,48.27614254455542,50.73456405174171,2.1298079335452043
213,50.3,50.45,49.53,49.83,1821272,49.82,51.23,45.32,45.17,48.34016350749579,50.7780741552358,2.0519645097205466
214,50.76,50.95,48.6,49.87,2968271,49.61,51.32,45.61,45.26,48.262721845348864,50.78706168821968,2.073252759026222
215,50.74,55.315,50.37,53.92,4908851,50.04,51.36,45.95,45.35,48.14309158457277,53.27862945916209,2.314091847667206
216,54.46,56.16,53.73,55.08,5520520,50.73,51.54,46.31,45.45,47.69861501627198,54.98355778778267,2.322371001405263
217,55.69,59.26,55.25,58.62,4749477,51.68,51.86,46.78,45.55,48.10981119504316,57.4565678457773,2.4550587870191727
218,59.5,59.69,57.9901,58.87,4993593,52.71,52.16,47.26,45.64,48.89738366831472,59.25735325050864,2.40111887366066
219,57.43,60.03,56.8,59.59,4101896,53.89,52.4,47.81,45.75,50.116635662514305,60.41118718539274,2.460324668399185
220,60.7,63.03,60.31,62.45,9235807,55.42,52.84,48.38,45.88,52.27214350769829,61.7229429423192,2.530301477799243
221,62.13,62.34,59.8,60.47,6668506,56.52,53.26,48.9,46.0,54.74497819377702,62.53462650214313,2.5388513722421546
222,60.29,62.97,60.115,62.22,3131955,57.9,53.72,49.44,46.14,56.3185455639875,62.96307773779659,2.5614334170820006
223,60.94,61.04,58.55,59.17,3834132,58.93,54.04,49.92,46.26,57.53969823413742,62.990052789401915,2.640616744433286
224,60.26,61.23,59.875,60.48,2498938,59.66,54.46,50.41,46.37,57.89578157994196,62.973711051665695,2.599144119830908
225,61.05,61.25,59.36,60.2,1667273,60.23,54.88,50.91,46.47,59.03319030482085,62.892213861883185,2.548490968414415
226,60.11,60.46,54.965,55.03,7582512,59.83,55.13,51.31,46.55,56.82993036067995,62.47365309788437,2.7589558992419567
227,53.25,54.98,52.94,54.85,4839576,59.38,55.43,51.61,46.62,54.66254183054287,63.070087425333114,2.711173335010389
228,54.12,55.25,52.8158,55.2,4417973,58.9,55.68,51.86,46.67,53.182353622602335,62.08603752844861,2.691389525366789
229,55.84,56.78,53.47,53.48,3028946,57.9,55.88,52.1,46.71,52.34062111136341,61.311119555543904,2.73557598784059
230,52.72,55.49,51.89,55.0,6478067,57.29,56.18,52.39,46.77,51.53555312437902,60.15011273987662,2.797320560137691
231,55.52,55.9,53.57,53.69,6013400,56.34,56.43,52.61,46.83,52.25312897587331,58.5265317028747,2.7639405201278557
232,53.2,53.87,50.75,50.93,4195470,55.43,56.45,52.72,46.88,51.49726585815696,56.34781601325497,2.7893733401187233
233,51.32,52.0,50.08,51.34,4086084,54.41,56.52,52.83,46.96,50.64703105503061,56.583070988592524,2.727275244395958
234,52.9,53.01,50.94,51.28,4960848,53.42,56.59,52.95,47.0,50.318496596127744,56.35251788664354,2.680327012653389
235,51.83,56.0,51.5,55.89,4441112,53.52,56.69,53.16,47.08,50.24526035858933,56.049756878299696,2.8260179403210044
236,56.31,57.53,54.73,57.48,4247519,53.81,56.81,53.41,47.16,50.111221155544875,56.81461019163902,2.8241595160123616
237,58.04,58.1,56.43,56.61,3441257,53.97,56.71,53.53,47.23,49.84702619247176,57.58318133849434,2.741719550582907
238,57.51,59.845,57.32,59.46,3512324,54.63,56.74,53.63,47.3,50.43600913839472,59.1283182252841,2.776953868398414
239,58.75,58.93,57.8827,58.22,2746006,54.99,56.67,53.74,47.38,51.82371225290155,59.68108263896011,2.691264306369956
240,58.5,60.92,58.45,60.21,4525144,55.71,56.56,53.91,47.46,53.47060693752219,60.29678658124026,2.691888284486388
241,60.15,60.27,58.16,59.63,2581214,56.68,56.52,54.17,47.53,55.77288893815427,60.57465882463024,2.6503248355945037
242,59.21,61.5,59.03,61.01,2969228,57.75,56.46,54.45,47.6,56.968629675060285,61.18580739487695,2.637444490194896
243,63.05,63.85,62.1401,63.1,3313421,59.07,56.65,54.76,47.68,57.11188946483141,62.585981611181126,2.6519127408952614
244,63.34,63.73,61.84,63.57,2196644,59.92,56.81,55.07,47.77,57.67916078692017,63.47976254259549,2.597490402259885
245,63.0,63.1399,60.46,60.57,2260230,60.26,56.83,55.22,47.84,58.286783541678346,63.770741713310144,2.6340982306698932
246,60.79,62.56,60.79,62.5,2611388,60.92,57.2,55.44,47.92,58.844396461564216,63.90265930808199,2.5880912141934727
247,63.01,67.28,62.78,66.09,4015960,61.66,57.76,55.72,48.02,59.816137660311945,65.6408211063455,2.7446561274653676
248,67.3,68.16,63.62,67.85,3978851,62.73,58.4,56.01,48.12,60.74747438306867,67.1215959383469,2.8728949755035558
249,68.15,72.855,67.41,72.37,5371757,64.08,59.34,56.37,48.23,60.27263312391052,70.23630130858486,3.056616762967588
250,72.4,72.84,69.84,70.49,5236962,65.28,60.11,56.71,48.33,60.40654704851232,72.28975587250676,3.0525727084699037
251,69.25,69.35,63.42,64.56,8057926,65.68,60.66,56.96,48.4,61.310954803413814,72.70644378534087,3.339531800722053
252,65.46,65.98,64.13,64.95,3957153,65.88,61.36,57.19,48.49,62.404296153023004,72.29183388291156,3.2331366720990498
253,64.69,65.75,63.95,64.47,3071662,65.98,62.02,57.43,48.57,62.7660173070174,72.31722292758933,3.130769766949118
254,64.8,68.48,64.8,67.02,3917473,66.7,62.8,57.72,48.67,63.08052814665851,72.35304709802375,3.193571926452753
255,67.45,73.87,67.23,71.46,6782121,67.7,63.58,58.12,48.76,63.07564642003376,72.77478687587887,3.454745360277557
256,73.92,74.86,71.27,74.56,5912368,68.64,64.43,58.61,48.88,62.805284654595354,73.58965998508299,3.4644064059720177
257,75.5,75.8,72.77,74.54,6231272,69.38,65.33,59.12,48.99,63.532429954173196,75.37312557104903,3.4333773769740166
258,72.99,77.145,70.6,73.6099,5043382,69.52,66.04,59.59,49.1,64.79531709999921,77.15636151176817,3.655636135761587
259,74.0,75.65,72.63,75.12,3273079,70.03,66.88,60.1,49.21,66.68352292228248,77.35165030042108,3.6102335546357605
260,75.2,76.59,74.66,75.29,3810228,71.22,67.64,60.63,49.33,68.99815195113314,76.83008969934522,3.490216872161778
261,75.7,75.89,74.23,74.97,2437812,72.34,68.4,61.15,49.44,71.10292877264136,76.78069946236795,3.359487095578794
262,74.17,74.59,72.17,74.36,2270193,73.44,69.07,61.63,49.56,71.3763682121836,76.81630436604144,3.31952373160888
263,72.61,72.95,70.33,70.65,4895088,73.84,69.45,62.05,49.66,70.64339405307169,76.97871102397144,3.37027203649396
264,71.38,73.24,69.88,73.2,3462913,74.03,69.93,62.51,49.76,70.35932493189735,76.30244137073177,3.369538319601534
265,72.47,73.16,68.7001,68.9,3511825,73.4,70.35,62.81,49.83,69.23008751953745,75.95497332594458,3.4502784396299955
266,69.22,71.03,68.28,70.09,4430023,72.91,70.73,63.11,49.91,68.35223763971993,75.11883190398919,3.4002585510849963
267,68.61,69.12,67.61,68.2,2332390,72.31,70.83,63.3,49.97,67.84199573465479,74.29774777533135,3.3345257974360685
268,66.66,71.51,66.28,69.67,6475172,71.7,70.92,63.52,50.02,67.02599189416178,73.45350239419152,3.469916811904921
269,71.34,73.47,71.0,72.55,4427008,71.4,70.93,63.78,50.08,66.95950983639867,73.62358812979896,3.493494182483141
270,71.05,73.149,69.8,73.04,3197917,71.18,71.06,63.99,50.14,66.95795415306549,73.59467342118745,3.4831731694486314
271,74.44,75.0,73.58,74.88,3292968,71.24,71.58,64.28,50.24,66.80272808427448,74.29565848337818,3.374375085916586
272,73.76,74.89,72.49,73.65,2548097,71.58,72.01,64.51,50.35,67.3155909532307,75.0910535348261,3.304776865493973
273,72.55,73.9,71.39,73.26,2131331,71.58,72.45,64.79,50.46,68.21140702044791,74.94045380117498,3.248007089387261
274,73.13,73.79,72.19,72.53,2656863,71.99,72.73,65.03,50.56,70.43137789442225,74.78744789185434,3.1302922972881717
275,72.37,75.55,72.16,75.34,5124270,72.57,72.92,65.33,50.67,70.67127930300911,75.28617331737391,3.1488428474818737
276,75.04,75.15,70.832,71.78,3234050,72.97,72.78,65.67,50.76,71.16192539976826,75.42299992171884,3.245925501233169
277,72.47,74.63,72.15,72.28,2524725,73.26,72.67,66.02,50.86,71.2430256620404,75.34737973012797,3.2176451082879423
278,72.47,73.56,72.3,73.31,3144372,73.34,72.65,66.38,50.96,71.24520442718529,75.2374899380203,3.079241886267375
279,72.8,72.85,70.88,72.2,3984761,73.25,72.51,66.75,51.06,71.05575291741862,75.2837808318607,3.032867465819706
280,72.77,73.51,71.13,71.73,2784594,72.9,72.33,67.09,51.16,70.87797068257713,75.26830345870039,2.9862340754040138
